-1.350605E-05	-4.298852E-06	-3.201314E-06	-7.323204E-07	-1.724914E-05	-1.014788E-05	4.754826E-06	-8.922823E-06	-2.994743E-06	4.404058E-06	-3.793924E-05	-1.315367E-05	1.125128E-05	4.888423E-06	3.163613E-06	1.142318E-05
-1.350605E-05	-4.298852E-06	-3.201314E-06	-7.323204E-07	-1.724914E-05	-1.014788E-05	4.754826E-06	-8.922823E-06	-2.994743E-06	4.404058E-06	-3.793924E-05	-1.315367E-05	1.125128E-05	4.888423E-06	3.163613E-06	1.142318E-05
-1.327226E-05	-4.727211E-06	-2.760412E-06	-6.276996E-06	-1.536667E-05	-9.4576E-06	2.431147E-06	-4.267516E-06	-7.990275E-07	2.081381E-06	-3.596346E-05	-1.411503E-05	1.097304E-05	5.679654E-06	2.657273E-06	1.143596E-05
-1.327226E-05	-4.727211E-06	-2.760412E-06	-6.276996E-06	-1.536667E-05	-9.4576E-06	2.431147E-06	-4.267516E-06	-7.990275E-07	2.081381E-06	-3.596346E-05	-1.411503E-05	1.097304E-05	5.679654E-06	2.657273E-06	1.143596E-05
-1.352266E-05	-4.822346E-06	-2.848315E-06	-1.328874E-05	-1.389086E-05	-8.250713E-06	-1.690733E-06	3.029878E-06	4.598856E-07	1.735154E-06	-3.457861E-05	-1.654493E-05	9.797769E-06	7.066213E-06	1.36147E-06	1.163371E-05
-1.352266E-05	-4.822346E-06	-2.848315E-06	-1.328874E-05	-1.389086E-05	-8.250713E-06	-1.690733E-06	3.029878E-06	4.598856E-07	1.735154E-06	-3.457861E-05	-1.654493E-05	9.797769E-06	7.066213E-06	1.36147E-06	1.163371E-05
-1.43569E-05	-4.866505E-06	-4.032264E-06	-1.652653E-05	-1.373889E-05	-7.427206E-06	-4.174007E-06	6.843302E-06	-1.716714E-07	2.703405E-06	-3.334683E-05	-1.704914E-05	9.223259E-06	7.248329E-06	6.035592E-07	1.312279E-05
-1.43569E-05	-4.866505E-06	-4.032264E-06	-1.652653E-05	-1.373889E-05	-7.427206E-06	-4.174007E-06	6.843302E-06	-1.716714E-07	2.703405E-06	-3.334683E-05	-1.704914E-05	9.223259E-06	7.248329E-06	6.035592E-07	1.312279E-05
-1.466124E-05	-5.24274E-06	-5.008029E-06	-1.590472E-05	-1.390353E-05	-7.798791E-06	-4.504082E-06	2.878283E-06	-7.490705E-07	2.139333E-06	-3.272786E-05	-1.826406E-05	8.778165E-06	7.435386E-06	4.411628E-09	1.274738E-05
-1.466124E-05	-5.24274E-06	-5.008029E-06	-1.590472E-05	-1.390353E-05	-7.798791E-06	-4.504082E-06	2.878283E-06	-7.490705E-07	2.139333E-06	-3.272786E-05	-1.826406E-05	8.778165E-06	7.435386E-06	4.411628E-09	1.274738E-05
-1.454015E-05	-5.540483E-06	-5.155946E-06	-1.35845E-05	-1.347105E-05	-8.725544E-06	-4.23481E-06	-4.606199E-06	-1.403533E-07	8.072692E-07	-3.255139E-05	-1.975703E-05	8.249186E-06	8.305733E-06	2.519331E-07	1.207697E-05
-1.454015E-05	-5.540483E-06	-5.155946E-06	-1.35845E-05	-1.347105E-05	-8.725544E-06	-4.23481E-06	-4.606199E-06	-1.403533E-07	8.072692E-07	-3.255139E-05	-1.975703E-05	8.249186E-06	8.305733E-06	2.519331E-07	1.207697E-05
-1.441999E-05	-5.481647E-06	-5.056545E-06	-1.002272E-05	-1.319236E-05	-9.3978E-06	-3.624647E-06	-8.547931E-06	4.676741E-07	4.792917E-08	-3.198637E-05	-2.109841E-05	8.032652E-06	8.926525E-06	1.040125E-06	1.19127E-05
-1.441999E-05	-5.481647E-06	-5.056545E-06	-1.002272E-05	-1.319236E-05	-9.3978E-06	-3.624647E-06	-8.547931E-06	4.676741E-07	4.792917E-08	-3.198637E-05	-2.109841E-05	8.032652E-06	8.926525E-06	1.040125E-06	1.19127E-05
-1.368406E-05	-5.746967E-06	-4.880904E-06	-7.099707E-06	-1.334668E-05	-9.569702E-06	-2.323439E-06	-5.57374E-06	3.520132E-08	-2.046224E-07	-3.075387E-05	-2.214279E-05	7.42527E-06	8.537341E-06	1.993012E-06	1.191378E-05
-1.368406E-05	-5.746967E-06	-4.880904E-06	-7.099707E-06	-1.334668E-05	-9.569702E-06	-2.323439E-06	-5.57374E-06	3.520132E-08	-2.046224E-07	-3.075387E-05	-2.214279E-05	7.42527E-06	8.537341E-06	1.993012E-06	1.191378E-05
-1.302411E-05	-6.024265E-06	-4.735885E-06	-6.057687E-06	-1.371782E-05	-8.756825E-06	-1.11691E-06	1.228395E-06	-3.701887E-07	1.481023E-06	-2.830129E-05	-2.415458E-05	6.598272E-06	7.569877E-06	5.04033E-06	1.30388E-05
-1.302411E-05	-6.024265E-06	-4.735885E-06	-6.057687E-06	-1.371782E-05	-8.756825E-06	-1.11691E-06	1.228395E-06	-3.701887E-07	1.481023E-06	-2.830129E-05	-2.415458E-05	6.598272E-06	7.569877E-06	5.04033E-06	1.30388E-05
-1.358109E-05	-5.352809E-06	-4.875343E-06	-5.044378E-06	-1.435235E-05	-6.861713E-06	-8.782987E-07	4.452118E-06	-7.086268E-07	2.41431E-06	-2.725478E-05	-2.553484E-05	6.186943E-06	6.06499E-06	7.980467E-06	1.449803E-05
-1.358109E-05	-5.352809E-06	-4.875343E-06	-5.044378E-06	-1.435235E-05	-6.861713E-06	-8.782987E-07	4.452118E-06	-7.086268E-07	2.41431E-06	-2.725478E-05	-2.553484E-05	6.186943E-06	6.06499E-06	7.980467E-06	1.449803E-05
-1.436816E-05	-4.198489E-06	-5.101615E-06	-1.795667E-06	-1.498064E-05	-4.830519E-06	-1.335517E-06	-3.985864E-07	-2.974426E-07	6.529355E-07	-2.836772E-05	-2.555467E-05	6.763207E-06	4.778952E-06	9.256187E-06	1.475074E-05
-1.436816E-05	-4.198489E-06	-5.101615E-06	-1.795667E-06	-1.498064E-05	-4.830519E-06	-1.335517E-06	-3.985864E-07	-2.974426E-07	6.529355E-07	-2.836772E-05	-2.555467E-05	6.763207E-06	4.778952E-06	9.256187E-06	1.475074E-05
-1.426836E-05	-3.685439E-06	-5.097546E-06	3.897465E-06	-1.518861E-05	-3.641121E-06	-2.019079E-06	-1.079247E-05	5.33013E-07	-4.153507E-07	-3.061599E-05	-2.383273E-05	7.752064E-06	5.247006E-06	1.052147E-05	1.425322E-05
-1.426836E-05	-3.685439E-06	-5.097546E-06	3.897465E-06	-1.518861E-05	-3.641121E-06	-2.019079E-06	-1.079247E-05	5.33013E-07	-4.153507E-07	-3.061599E-05	-2.383273E-05	7.752064E-06	5.247006E-06	1.052147E-05	1.425322E-05
-1.344244E-05	-4.004195E-06	-4.703596E-06	1.018482E-05	-1.523624E-05	-3.498771E-06	-2.776762E-06	-2.038191E-05	-9.27238E-07	3.839789E-07	-3.267018E-05	-2.097956E-05	8.449198E-06	6.664416E-06	1.19811E-05	1.377761E-05
-1.344244E-05	-4.004195E-06	-4.703596E-06	1.018482E-05	-1.523624E-05	-3.498771E-06	-2.776762E-06	-2.038191E-05	-9.27238E-07	3.839789E-07	-3.267018E-05	-2.097956E-05	8.449198E-06	6.664416E-06	1.19811E-05	1.377761E-05
-1.210105E-05	-4.259609E-06	-3.759931E-06	1.468923E-05	-1.589695E-05	-3.949638E-06	-3.329759E-06	-2.510478E-05	-3.452601E-06	1.028182E-06	-3.49455E-05	-2.043869E-05	8.229471E-06	6.744988E-06	1.251295E-05	1.388061E-05
-1.210105E-05	-4.259609E-06	-3.759931E-06	1.468923E-05	-1.589695E-05	-3.949638E-06	-3.329759E-06	-2.510478E-05	-3.452601E-06	1.028182E-06	-3.49455E-05	-2.043869E-05	8.229471E-06	6.744988E-06	1.251295E-05	1.388061E-05
-1.087761E-05	-3.67744E-06	-2.653461E-06	1.543248E-05	-1.678868E-05	-4.493079E-06	-3.529892E-06	-2.475168E-05	-3.35809E-06	4.276371E-07	-3.639375E-05	-2.16649E-05	7.119646E-06	4.952491E-06	1.311307E-05	1.4695E-05
-1.087761E-05	-3.67744E-06	-2.653461E-06	1.543248E-05	-1.678868E-05	-4.493079E-06	-3.529892E-06	-2.475168E-05	-3.35809E-06	4.276371E-07	-3.639375E-05	-2.16649E-05	7.119646E-06	4.952491E-06	1.311307E-05	1.4695E-05
-1.08495E-05	-2.916101E-06	-2.348985E-06	1.165404E-05	-1.637195E-05	-5.087391E-06	-3.340111E-06	-2.078149E-05	-1.709448E-06	-2.965601E-08	-3.644874E-05	-2.218198E-05	6.583825E-06	4.135415E-06	1.471069E-05	1.517796E-05
-1.08495E-05	-2.916101E-06	-2.348985E-06	1.165404E-05	-1.637195E-05	-5.087391E-06	-3.340111E-06	-2.078149E-05	-1.709448E-06	-2.965601E-08	-3.644874E-05	-2.218198E-05	6.583825E-06	4.135415E-06	1.471069E-05	1.517796E-05
-1.191964E-05	-3.569845E-06	-3.178431E-06	5.175218E-06	-1.445763E-05	-5.810999E-06	-2.464991E-06	-1.519322E-05	-1.135069E-06	5.032358E-07	-3.622611E-05	-2.125779E-05	6.508639E-06	5.086451E-06	1.628331E-05	1.485125E-05
-1.191964E-05	-3.569845E-06	-3.178431E-06	5.175218E-06	-1.445763E-05	-5.810999E-06	-2.464991E-06	-1.519322E-05	-1.135069E-06	5.032358E-07	-3.622611E-05	-2.125779E-05	6.508639E-06	5.086451E-06	1.628331E-05	1.485125E-05
-1.293417E-05	-5.598442E-06	-4.183031E-06	-9.342848E-07	-1.270537E-05	-6.487023E-06	-1.316238E-06	-1.054777E-05	-1.803415E-06	1.150167E-06	-3.526479E-05	-2.0188E-05	6.742094E-06	6.013043E-06	1.810403E-05	1.415459E-05
-1.293417E-05	-5.598442E-06	-4.183031E-06	-9.342848E-07	-1.270537E-05	-6.487023E-06	-1.316238E-06	-1.054777E-05	-1.803415E-06	1.150167E-06	-3.526479E-05	-2.0188E-05	6.742094E-06	6.013043E-06	1.810403E-05	1.415459E-05
-1.310905E-05	-6.798337E-06	-4.149502E-06	-5.456391E-06	-1.25009E-05	-6.822224E-06	-1.057924E-06	-8.764562E-06	-2.621029E-06	1.102552E-06	-3.3424E-05	-1.94903E-05	7.135455E-06	5.240015E-06	1.968941E-05	1.395573E-05
-1.310905E-05	-6.798337E-06	-4.149502E-06	-5.456391E-06	-1.25009E-05	-6.822224E-06	-1.057924E-06	-8.764562E-06	-2.621029E-06	1.102552E-06	-3.3424E-05	-1.94903E-05	7.135455E-06	5.240015E-06	1.968941E-05	1.395573E-05
-1.248358E-05	-6.340256E-06	-3.402926E-06	-8.798089E-06	-1.328322E-05	-6.551429E-06	-1.344337E-06	-9.26857E-06	-3.727831E-06	1.006394E-06	-3.266484E-05	-1.902974E-05	7.832668E-06	3.738417E-06	1.891023E-05	1.37375E-05
-1.248358E-05	-6.340256E-06	-3.402926E-06	-8.798089E-06	-1.328322E-05	-6.551429E-06	-1.344337E-06	-9.26857E-06	-3.727831E-06	1.006394E-06	-3.266484E-05	-1.902974E-05	7.832668E-06	3.738417E-06	1.891023E-05	1.37375E-05
-1.146768E-05	-5.475238E-06	-3.349259E-06	-1.08439E-05	-1.357861E-05	-5.651725E-06	-1.198927E-06	-1.029264E-05	-3.945652E-06	1.693949E-06	-3.33983E-05	-1.768949E-05	8.76948E-06	3.046387E-06	1.728216E-05	1.362474E-05
-1.146768E-05	-5.475238E-06	-3.349259E-06	-1.08439E-05	-1.357861E-05	-5.651725E-06	-1.198927E-06	-1.029264E-05	-3.945652E-06	1.693949E-06	-3.33983E-05	-1.768949E-05	8.76948E-06	3.046387E-06	1.728216E-05	1.362474E-05
-1.037281E-05	-4.797524E-06	-4.253384E-06	-1.115422E-05	-1.322474E-05	-4.637719E-06	-1.376817E-06	-1.107482E-05	-2.913939E-06	2.474682E-06	-3.390607E-05	-1.679281E-05	9.878661E-06	2.049335E-06	1.748926E-05	1.463408E-05
-1.037281E-05	-4.797524E-06	-4.253384E-06	-1.115422E-05	-1.322474E-05	-4.637719E-06	-1.376817E-06	-1.107482E-05	-2.913939E-06	2.474682E-06	-3.390607E-05	-1.679281E-05	9.878661E-06	2.049335E-06	1.748926E-05	1.463408E-05
-9.725821E-06	-4.291457E-06	-4.867441E-06	-1.096801E-05	-1.299693E-05	-4.512744E-06	-1.749234E-06	-1.10471E-05	-2.642604E-06	2.555699E-06	-3.405238E-05	-1.753954E-05	9.764108E-06	2.85977E-08	1.908176E-05	1.56615E-05
-9.725821E-06	-4.291457E-06	-4.867441E-06	-1.096801E-05	-1.299693E-05	-4.512744E-06	-1.749234E-06	-1.10471E-05	-2.642604E-06	2.555699E-06	-3.405238E-05	-1.753954E-05	9.764108E-06	2.85977E-08	1.908176E-05	1.56615E-05
-1.010957E-05	-4.325484E-06	-4.058162E-06	-1.228013E-05	-1.307939E-05	-5.653631E-06	-8.721526E-07	-1.006461E-05	-1.793808E-06	2.442106E-06	-3.27109E-05	-2.04673E-05	8.910705E-06	2.294463E-09	2.002634E-05	1.535396E-05
-1.010957E-05	-4.325484E-06	-4.058162E-06	-1.228013E-05	-1.307939E-05	-5.653631E-06	-8.721526E-07	-1.006461E-05	-1.793808E-06	2.442106E-06	-3.27109E-05	-2.04673E-05	8.910705E-06	2.294463E-09	2.002634E-05	1.535396E-05
-1.115193E-05	-5.088813E-06	-2.34676E-06	-1.473534E-05	-1.303342E-05	-6.788755E-06	1.073494E-07	-9.975959E-06	-3.615535E-07	2.21389E-06	-3.076225E-05	-2.19941E-05	8.458646E-06	2.828124E-06	2.079878E-05	1.407966E-05
-1.115193E-05	-5.088813E-06	-2.34676E-06	-1.473534E-05	-1.303342E-05	-6.788755E-06	1.073494E-07	-9.975959E-06	-3.615535E-07	2.21389E-06	-3.076225E-05	-2.19941E-05	8.458646E-06	2.828124E-06	2.079878E-05	1.407966E-05
-1.182298E-05	-5.978587E-06	-1.524174E-06	-1.690814E-05	-1.297069E-05	-6.775854E-06	-6.294084E-07	-1.196138E-05	-1.709424E-07	1.873442E-06	-3.104012E-05	-2.040512E-05	9.060534E-06	6.814025E-06	2.106982E-05	1.331888E-05
-1.182298E-05	-5.978587E-06	-1.524174E-06	-1.690814E-05	-1.297069E-05	-6.775854E-06	-6.294084E-07	-1.196138E-05	-1.709424E-07	1.873442E-06	-3.104012E-05	-2.040512E-05	9.060534E-06	6.814025E-06	2.106982E-05	1.331888E-05
-1.169726E-05	-6.129921E-06	-2.489964E-06	-1.856106E-05	-1.360453E-05	-6.242482E-06	-2.162688E-06	-1.43466E-05	-4.786361E-07	2.446296E-06	-3.168983E-05	-1.866937E-05	8.131063E-06	7.872159E-06	1.997433E-05	1.554492E-05
-1.169726E-05	-6.129921E-06	-2.489964E-06	-1.856106E-05	-1.360453E-05	-6.242482E-06	-2.162688E-06	-1.43466E-05	-4.786361E-07	2.446296E-06	-3.168983E-05	-1.866937E-05	8.131063E-06	7.872159E-06	1.997433E-05	1.554492E-05
-1.127738E-05	-5.642094E-06	-3.792414E-06	-2.020019E-05	-1.461073E-05	-6.101953E-06	-2.982184E-06	-1.563491E-05	-5.232628E-07	3.727738E-06	-3.174858E-05	-2.003318E-05	6.103535E-06	5.276037E-06	1.95381E-05	1.727215E-05
-1.127738E-05	-5.642094E-06	-3.792414E-06	-2.020019E-05	-1.461073E-05	-6.101953E-06	-2.982184E-06	-1.563491E-05	-5.232628E-07	3.727738E-06	-3.174858E-05	-2.003318E-05	6.103535E-06	5.276037E-06	1.95381E-05	1.727215E-05
-1.123538E-05	-4.786421E-06	-4.14925E-06	-2.23745E-05	-1.522156E-05	-6.328201E-06	-2.993457E-06	-1.625345E-05	-1.317913E-06	4.940225E-06	-3.225898E-05	-2.109828E-05	5.851976E-06	4.030053E-06	2.024782E-05	1.812865E-05
-1.123538E-05	-4.786421E-06	-4.14925E-06	-2.23745E-05	-1.522156E-05	-6.328201E-06	-2.993457E-06	-1.625345E-05	-1.317913E-06	4.940225E-06	-3.225898E-05	-2.109828E-05	5.851976E-06	4.030053E-06	2.024782E-05	1.812865E-05
-1.16598E-05	-3.269288E-06	-4.947142E-06	-2.37223E-05	-1.551513E-05	-6.270027E-06	-2.97971E-06	-1.657925E-05	-2.166847E-06	4.675896E-06	-3.248142E-05	-1.926297E-05	7.229452E-06	3.771524E-06	2.182595E-05	1.733978E-05
-1.16598E-05	-3.269288E-06	-4.947142E-06	-2.37223E-05	-1.551513E-05	-6.270027E-06	-2.97971E-06	-1.657925E-05	-2.166847E-06	4.675896E-06	-3.248142E-05	-1.926297E-05	7.229452E-06	3.771524E-06	2.182595E-05	1.733978E-05
-1.185577E-05	-2.02407E-06	-6.743306E-06	-2.300085E-05	-1.549444E-05	-5.756658E-06	-3.305123E-06	-1.580998E-05	2.761124E-07	4.445744E-06	-3.130554E-05	-1.784158E-05	8.214934E-06	5.205705E-06	2.125623E-05	1.646631E-05
-1.185577E-05	-2.02407E-06	-6.743306E-06	-2.300085E-05	-1.549444E-05	-5.756658E-06	-3.305123E-06	-1.580998E-05	2.761124E-07	4.445744E-06	-3.130554E-05	-1.784158E-05	8.214934E-06	5.205705E-06	2.125623E-05	1.646631E-05
-1.120001E-05	-2.187363E-06	-7.742504E-06	-2.241757E-05	-1.518062E-05	-5.476541E-06	-3.467746E-06	-1.376044E-05	2.62303E-06	4.360646E-06	-3.049082E-05	-1.795513E-05	6.937052E-06	6.132625E-06	1.877354E-05	1.702594E-05
-1.120001E-05	-2.187363E-06	-7.742504E-06	-2.241757E-05	-1.518062E-05	-5.476541E-06	-3.467746E-06	-1.376044E-05	2.62303E-06	4.360646E-06	-3.049082E-05	-1.795513E-05	6.937052E-06	6.132625E-06	1.877354E-05	1.702594E-05
-1.046159E-05	-2.602843E-06	-7.355613E-06	-2.316331E-05	-1.499104E-05	-5.619436E-06	-3.181568E-06	-1.201804E-05	2.075849E-06	4.106747E-06	-3.039047E-05	-1.936908E-05	6.694109E-06	5.470024E-06	1.742018E-05	1.707747E-05
-1.046159E-05	-2.602843E-06	-7.355613E-06	-2.316331E-05	-1.499104E-05	-5.619436E-06	-3.181568E-06	-1.201804E-05	2.075849E-06	4.106747E-06	-3.039047E-05	-1.936908E-05	6.694109E-06	5.470024E-06	1.742018E-05	1.707747E-05
-1.091641E-05	-2.101181E-06	-6.356372E-06	-2.406938E-05	-1.471865E-05	-6.03828E-06	-2.769645E-06	-1.1588E-05	9.427626E-07	4.493907E-06	-3.036812E-05	-2.065104E-05	8.319126E-06	4.162993E-06	1.77708E-05	1.583912E-05
-1.091641E-05	-2.101181E-06	-6.356372E-06	-2.406938E-05	-1.471865E-05	-6.03828E-06	-2.769645E-06	-1.1588E-05	9.427626E-07	4.493907E-06	-3.036812E-05	-2.065104E-05	8.319126E-06	4.162993E-06	1.77708E-05	1.583912E-05
-1.244056E-05	-1.473339E-06	-5.085805E-06	-2.533034E-05	-1.387205E-05	-6.887279E-06	-2.469307E-06	-1.174558E-05	2.694816E-09	5.343121E-06	-2.997006E-05	-2.100189E-05	8.729166E-06	4.046539E-06	1.840432E-05	1.448558E-05
-1.244056E-05	-1.473339E-06	-5.085805E-06	-2.533034E-05	-1.387205E-05	-6.887279E-06	-2.469307E-06	-1.174558E-05	2.694816E-09	5.343121E-06	-2.997006E-05	-2.100189E-05	8.729166E-06	4.046539E-06	1.840432E-05	1.448558E-05
-1.363664E-05	-1.580966E-06	-3.769351E-06	-2.693064E-05	-1.292565E-05	-7.419638E-06	-2.081872E-06	-1.196953E-05	-1.353952E-06	6.381293E-06	-2.945529E-05	-2.096397E-05	7.695293E-06	5.374427E-06	1.935172E-05	1.63972E-05
-1.363664E-05	-1.580966E-06	-3.769351E-06	-2.693064E-05	-1.292565E-05	-7.419638E-06	-2.081872E-06	-1.196953E-05	-1.353952E-06	6.381293E-06	-2.945529E-05	-2.096397E-05	7.695293E-06	5.374427E-06	1.935172E-05	1.63972E-05
-1.383823E-05	-2.407127E-06	-2.874414E-06	-2.755693E-05	-1.270332E-05	-6.845583E-06	-1.564903E-06	-1.233806E-05	-3.055134E-06	6.301123E-06	-2.921445E-05	-2.118675E-05	7.589803E-06	6.808288E-06	2.013955E-05	1.688076E-05
-1.383823E-05	-2.407127E-06	-2.874414E-06	-2.755693E-05	-1.270332E-05	-6.845583E-06	-1.564903E-06	-1.233806E-05	-3.055134E-06	6.301123E-06	-2.921445E-05	-2.118675E-05	7.589803E-06	6.808288E-06	2.013955E-05	1.688076E-05
-1.396799E-05	-3.573106E-06	-2.628906E-06	-2.663219E-05	-1.319624E-05	-6.067574E-06	-1.512784E-06	-1.269102E-05	-2.57898E-06	5.878668E-06	-2.863537E-05	-2.185882E-05	8.643097E-06	7.994528E-06	2.064374E-05	1.58842E-05
-1.396799E-05	-3.573106E-06	-2.628906E-06	-2.663219E-05	-1.319624E-05	-6.067574E-06	-1.512784E-06	-1.269102E-05	-2.57898E-06	5.878668E-06	-2.863537E-05	-2.185882E-05	8.643097E-06	7.994528E-06	2.064374E-05	1.58842E-05
-1.430504E-05	-4.513543E-06	-2.476312E-06	-2.424597E-05	-1.377174E-05	-6.205725E-06	-2.362374E-06	-1.276204E-05	-9.876375E-07	5.927807E-06	-2.940806E-05	-2.251803E-05	9.153035E-06	8.000852E-06	2.017456E-05	1.525874E-05
-1.430504E-05	-4.513543E-06	-2.476312E-06	-2.424597E-05	-1.377174E-05	-6.205725E-06	-2.362374E-06	-1.276204E-05	-9.876375E-07	5.927807E-06	-2.940806E-05	-2.251803E-05	9.153035E-06	8.000852E-06	2.017456E-05	1.525874E-05
-1.373694E-05	-4.607251E-06	-1.986099E-06	-2.065372E-05	-1.400152E-05	-7.092702E-06	-3.462804E-06	-1.213022E-05	1.644015E-07	7.372666E-06	-3.0708E-05	-2.21662E-05	8.258212E-06	7.771782E-06	1.788254E-05	1.623597E-05
-1.373694E-05	-4.607251E-06	-1.986099E-06	-2.065372E-05	-1.400152E-05	-7.092702E-06	-3.462804E-06	-1.213022E-05	1.644015E-07	7.372666E-06	-3.0708E-05	-2.21662E-05	8.258212E-06	7.771782E-06	1.788254E-05	1.623597E-05
-1.197154E-05	-3.498906E-06	-1.928639E-06	-1.676931E-05	-1.411411E-05	-7.879114E-06	-3.542599E-06	-1.040644E-05	7.967784E-07	7.85328E-06	-3.075278E-05	-2.180966E-05	7.31171E-06	7.812656E-06	1.567603E-05	1.774722E-05
-1.197154E-05	-3.498906E-06	-1.928639E-06	-1.676931E-05	-1.411411E-05	-7.879114E-06	-3.542599E-06	-1.040644E-05	7.967784E-07	7.85328E-06	-3.075278E-05	-2.180966E-05	7.31171E-06	7.812656E-06	1.567603E-05	1.774722E-05
-1.031311E-05	-1.734563E-06	-2.475228E-06	-1.419532E-05	-1.444031E-05	-7.93218E-06	-2.581116E-06	-8.459784E-06	1.723931E-06	6.889767E-06	-3.017647E-05	-2.239389E-05	8.045985E-06	8.668092E-06	1.49872E-05	1.771934E-05
-1.031311E-05	-1.734563E-06	-2.475228E-06	-1.419532E-05	-1.444031E-05	-7.93218E-06	-2.581116E-06	-8.459784E-06	1.723931E-06	6.889767E-06	-3.017647E-05	-2.239389E-05	8.045985E-06	8.668092E-06	1.49872E-05	1.771934E-05
-1.016824E-05	-4.627472E-07	-2.604733E-06	-1.387329E-05	-1.467185E-05	-7.328685E-06	-2.055497E-06	-7.78226E-06	2.695138E-06	6.061463E-06	-2.982049E-05	-2.273196E-05	9.584391E-06	8.808877E-06	1.613124E-05	1.661821E-05
-1.016824E-05	-4.627472E-07	-2.604733E-06	-1.387329E-05	-1.467185E-05	-7.328685E-06	-2.055497E-06	-7.78226E-06	2.695138E-06	6.061463E-06	-2.982049E-05	-2.273196E-05	9.584391E-06	8.808877E-06	1.613124E-05	1.661821E-05
-1.132133E-05	-1.344786E-07	-2.47638E-06	-1.455597E-05	-1.425366E-05	-6.728646E-06	-2.687091E-06	-8.159524E-06	2.139533E-06	5.437533E-06	-3.029069E-05	-2.229012E-05	1.012116E-05	8.050366E-06	1.737667E-05	1.615753E-05
-1.132133E-05	-1.344786E-07	-2.47638E-06	-1.455597E-05	-1.425366E-05	-6.728646E-06	-2.687091E-06	-8.159524E-06	2.139533E-06	5.437533E-06	-3.029069E-05	-2.229012E-05	1.012116E-05	8.050366E-06	1.737667E-05	1.615753E-05
-1.225413E-05	-7.498649E-07	-2.671147E-06	-1.445405E-05	-1.375699E-05	-6.726852E-06	-3.663887E-06	-8.865391E-06	6.010442E-07	5.525011E-06	-3.154483E-05	-2.283194E-05	1.012932E-05	7.580088E-06	1.876373E-05	1.67241E-05
-1.225413E-05	-7.498649E-07	-2.671147E-06	-1.445405E-05	-1.375699E-05	-6.726852E-06	-3.663887E-06	-8.865391E-06	6.010442E-07	5.525011E-06	-3.154483E-05	-2.283194E-05	1.012932E-05	7.580088E-06	1.876373E-05	1.67241E-05
-1.198624E-05	-2.413893E-06	-2.555069E-06	-1.36156E-05	-1.463275E-05	-7.250916E-06	-3.792136E-06	-1.042694E-05	7.034707E-07	6.636836E-06	-3.197949E-05	-2.425155E-05	1.043553E-05	7.973739E-06	1.95075E-05	1.69317E-05
-1.198624E-05	-2.413893E-06	-2.555069E-06	-1.36156E-05	-1.463275E-05	-7.250916E-06	-3.792136E-06	-1.042694E-05	7.034707E-07	6.636836E-06	-3.197949E-05	-2.425155E-05	1.043553E-05	7.973739E-06	1.95075E-05	1.69317E-05
-1.097318E-05	-4.232837E-06	-2.110999E-06	-1.286667E-05	-1.644184E-05	-7.539636E-06	-2.547212E-06	-1.236147E-05	1.702249E-06	7.843775E-06	-3.189989E-05	-2.415725E-05	1.021031E-05	8.333741E-06	1.897862E-05	1.706066E-05
-1.097318E-05	-4.232837E-06	-2.110999E-06	-1.286667E-05	-1.644184E-05	-7.539636E-06	-2.547212E-06	-1.236147E-05	1.702249E-06	7.843775E-06	-3.189989E-05	-2.415725E-05	1.021031E-05	8.333741E-06	1.897862E-05	1.706066E-05
-1.028591E-05	-4.640513E-06	-2.015619E-06	-1.245255E-05	-1.707957E-05	-7.178638E-06	-7.039102E-07	-1.300506E-05	2.192053E-06	7.477753E-06	-3.264219E-05	-2.340826E-05	9.987866E-06	7.755861E-06	1.894426E-05	1.724272E-05
-1.028591E-05	-4.640513E-06	-2.015619E-06	-1.245255E-05	-1.707957E-05	-7.178638E-06	-7.039102E-07	-1.300506E-05	2.192053E-06	7.477753E-06	-3.264219E-05	-2.340826E-05	9.987866E-06	7.755861E-06	1.894426E-05	1.724272E-05
-1.027353E-05	-3.452116E-06	-2.009489E-06	-1.235255E-05	-1.607782E-05	-6.873168E-06	2.155837E-07	-1.234888E-05	2.29391E-06	5.93569E-06	-3.374423E-05	-2.344692E-05	1.016845E-05	6.691744E-06	2.004002E-05	1.717169E-05
-1.027353E-05	-3.452116E-06	-2.009489E-06	-1.235255E-05	-1.607782E-05	-6.873168E-06	2.155837E-07	-1.234888E-05	2.29391E-06	5.93569E-06	-3.374423E-05	-2.344692E-05	1.016845E-05	6.691744E-06	2.004002E-05	1.717169E-05
-1.057428E-05	-2.286799E-06	-2.286045E-06	-1.238138E-05	-1.505208E-05	-7.273343E-06	-4.119418E-07	-1.196186E-05	1.314747E-06	5.564717E-06	-3.382716E-05	-2.282355E-05	9.318042E-06	5.850119E-06	1.91389E-05	1.640161E-05
-1.057428E-05	-2.286799E-06	-2.286045E-06	-1.238138E-05	-1.505208E-05	-7.273343E-06	-4.119418E-07	-1.196186E-05	1.314747E-06	5.564717E-06	-3.382716E-05	-2.282355E-05	9.318042E-06	5.850119E-06	1.91389E-05	1.640161E-05
-1.08387E-05	-2.61838E-06	-3.558372E-06	-1.172909E-05	-1.525808E-05	-7.68293E-06	-1.949376E-06	-1.261815E-05	1.49099E-06	5.983032E-06	-3.245368E-05	-2.291146E-05	8.920147E-06	5.200834E-06	1.734604E-05	1.579857E-05
-1.08387E-05	-2.61838E-06	-3.558372E-06	-1.172909E-05	-1.525808E-05	-7.68293E-06	-1.949376E-06	-1.261815E-05	1.49099E-06	5.983032E-06	-3.245368E-05	-2.291146E-05	8.920147E-06	5.200834E-06	1.734604E-05	1.579857E-05
-1.094329E-05	-3.863633E-06	-4.738733E-06	-9.200514E-06	-1.583734E-05	-6.829197E-06	-3.640542E-06	-1.327491E-05	2.039467E-06	4.503554E-06	-3.151168E-05	-2.332278E-05	8.472731E-06	5.042216E-06	1.727264E-05	1.472207E-05
-1.094329E-05	-3.863633E-06	-4.738733E-06	-9.200514E-06	-1.583734E-05	-6.829197E-06	-3.640542E-06	-1.327491E-05	2.039467E-06	4.503554E-06	-3.151168E-05	-2.332278E-05	8.472731E-06	5.042216E-06	1.727264E-05	1.472207E-05
-1.098719E-05	-4.768222E-06	-4.671546E-06	-5.400357E-06	-1.551828E-05	-5.234982E-06	-4.727531E-06	-1.340896E-05	6.204551E-07	3.824261E-06	-3.015418E-05	-2.2391E-05	6.412144E-06	3.744152E-06	1.758182E-05	1.450369E-05
-1.098719E-05	-4.768222E-06	-4.671546E-06	-5.400357E-06	-1.551828E-05	-5.234982E-06	-4.727531E-06	-1.340896E-05	6.204551E-07	3.824261E-06	-3.015418E-05	-2.2391E-05	6.412144E-06	3.744152E-06	1.758182E-05	1.450369E-05
-1.112417E-05	-5.286583E-06	-4.247546E-06	-2.85334E-06	-1.467316E-05	-4.949124E-06	-4.629407E-06	-1.413419E-05	-5.330147E-07	4.824405E-06	-2.808281E-05	-2.054829E-05	4.632129E-06	3.647134E-06	1.703861E-05	1.468435E-05
-1.112417E-05	-5.286583E-06	-4.247546E-06	-2.85334E-06	-1.467316E-05	-4.949124E-06	-4.629407E-06	-1.413419E-05	-5.330147E-07	4.824405E-06	-2.808281E-05	-2.054829E-05	4.632129E-06	3.647134E-06	1.703861E-05	1.468435E-05
-1.097812E-05	-5.457302E-06	-3.869833E-06	-2.262872E-06	-1.457994E-05	-5.694663E-06	-4.344614E-06	-1.502342E-05	3.832045E-07	4.620037E-06	-2.769639E-05	-1.867392E-05	5.596795E-06	5.765996E-06	1.67343E-05	1.424991E-05
-1.097812E-05	-5.457302E-06	-3.869833E-06	-2.262872E-06	-1.457994E-05	-5.694663E-06	-4.344614E-06	-1.502342E-05	3.832045E-07	4.620037E-06	-2.769639E-05	-1.867392E-05	5.596795E-06	5.765996E-06	1.67343E-05	1.424991E-05
-9.95571E-06	-4.748704E-06	-2.75866E-06	-2.296447E-06	-1.6014E-05	-5.532778E-06	-5.056935E-06	-1.413658E-05	1.02013E-06	4.455004E-06	-2.852646E-05	-1.831481E-05	7.490441E-06	6.519675E-06	1.558499E-05	1.455474E-05
-9.95571E-06	-4.748704E-06	-2.75866E-06	-2.296447E-06	-1.6014E-05	-5.532778E-06	-5.056935E-06	-1.413658E-05	1.02013E-06	4.455004E-06	-2.852646E-05	-1.831481E-05	7.490441E-06	6.519675E-06	1.558499E-05	1.455474E-05
-8.749332E-06	-3.290992E-06	-1.574777E-06	-2.522913E-06	-1.78563E-05	-4.586605E-06	-5.454579E-06	-1.125796E-05	1.909123E-06	4.598384E-06	-2.98745E-05	-1.989026E-05	7.283328E-06	6.013135E-06	1.426816E-05	1.4103E-05
-8.749332E-06	-3.290992E-06	-1.574777E-06	-2.522913E-06	-1.78563E-05	-4.586605E-06	-5.454579E-06	-1.125796E-05	1.909123E-06	4.598384E-06	-2.98745E-05	-1.989026E-05	7.283328E-06	6.013135E-06	1.426816E-05	1.4103E-05
-8.412215E-06	-2.227856E-06	-1.628651E-06	-2.938963E-06	-1.84423E-05	-3.822963E-06	-4.442879E-06	-7.63445E-06	2.836038E-06	2.94381E-06	-3.0095E-05	-2.166199E-05	7.692591E-06	5.295467E-06	1.459422E-05	1.23014E-05
-8.412215E-06	-2.227856E-06	-1.628651E-06	-2.938963E-06	-1.84423E-05	-3.822963E-06	-4.442879E-06	-7.63445E-06	2.836038E-06	2.94381E-06	-3.0095E-05	-2.166199E-05	7.692591E-06	5.295467E-06	1.459422E-05	1.23014E-05
-8.613707E-06	-2.285362E-06	-2.37261E-06	-3.090024E-06	-1.809888E-05	-3.280817E-06	-3.507639E-06	-4.705031E-06	1.329393E-06	4.218632E-07	-2.853151E-05	-2.14271E-05	9.452578E-06	6.055459E-06	1.555362E-05	1.108167E-05
-8.613707E-06	-2.285362E-06	-2.37261E-06	-3.090024E-06	-1.809888E-05	-3.280817E-06	-3.507639E-06	-4.705031E-06	1.329393E-06	4.218632E-07	-2.853151E-05	-2.14271E-05	9.452578E-06	6.055459E-06	1.555362E-05	1.108167E-05
-9.097404E-06	-2.894118E-06	-2.609665E-06	-3.145541E-06	-1.74849E-05	-2.98182E-06	-3.376531E-06	-3.908574E-06	-6.867578E-07	-2.740261E-07	-2.650217E-05	-2.082371E-05	9.98604E-06	6.829696E-06	1.654603E-05	1.020837E-05
-9.097404E-06	-2.894118E-06	-2.609665E-06	-3.145541E-06	-1.74849E-05	-2.98182E-06	-3.376531E-06	-3.908574E-06	-6.867578E-07	-2.740261E-07	-2.650217E-05	-2.082371E-05	9.98604E-06	6.829696E-06	1.654603E-05	1.020837E-05
-1.017312E-05	-3.436991E-06	-2.264493E-06	-3.775999E-06	-1.647121E-05	-3.170361E-06	-3.114285E-06	-4.740385E-06	-9.938965E-07	8.147868E-07	-2.585874E-05	-1.99532E-05	8.943507E-06	7.058391E-06	1.633463E-05	8.938478E-06
-1.017312E-05	-3.436991E-06	-2.264493E-06	-3.775999E-06	-1.647121E-05	-3.170361E-06	-3.114285E-06	-4.740385E-06	-9.938965E-07	8.147868E-07	-2.585874E-05	-1.99532E-05	8.943507E-06	7.058391E-06	1.633463E-05	8.938478E-06
-1.128582E-05	-3.983067E-06	-1.926224E-06	-5.184945E-06	-1.561189E-05	-4.026406E-06	-2.569072E-06	-5.078722E-06	6.632377E-08	1.39837E-06	-2.715735E-05	-1.937529E-05	7.25103E-06	7.063699E-06	1.758201E-05	8.001177E-06
-1.128582E-05	-3.983067E-06	-1.926224E-06	-5.184945E-06	-1.561189E-05	-4.026406E-06	-2.569072E-06	-5.078722E-06	6.632377E-08	1.39837E-06	-2.715735E-05	-1.937529E-05	7.25103E-06	7.063699E-06	1.758201E-05	8.001177E-06
-1.155806E-05	-4.486239E-06	-2.328107E-06	-6.816701E-06	-1.562767E-05	-5.529859E-06	-2.528302E-06	-5.239242E-06	1.271975E-07	9.120425E-07	-2.915147E-05	-1.913008E-05	5.86446E-06	7.018788E-06	1.959883E-05	7.60069E-06
-1.155806E-05	-4.486239E-06	-2.328107E-06	-6.816701E-06	-1.562767E-05	-5.529859E-06	-2.528302E-06	-5.239242E-06	1.271975E-07	9.120425E-07	-2.915147E-05	-1.913008E-05	5.86446E-06	7.018788E-06	1.959883E-05	7.60069E-06
-1.097998E-05	-4.784961E-06	-3.475997E-06	-7.579735E-06	-1.595867E-05	-6.991355E-06	-3.144921E-06	-7.325324E-06	3.521117E-07	-1.192025E-07	-2.980931E-05	-1.892313E-05	5.554211E-06	8.049459E-06	1.936019E-05	7.177031E-06
-1.097998E-05	-4.784961E-06	-3.475997E-06	-7.579735E-06	-1.595867E-05	-6.991355E-06	-3.144921E-06	-7.325324E-06	3.521117E-07	-1.192025E-07	-2.980931E-05	-1.892313E-05	5.554211E-06	8.049459E-06	1.936019E-05	7.177031E-06
-1.030506E-05	-4.907317E-06	-4.205272E-06	-6.444962E-06	-1.537699E-05	-7.488366E-06	-3.66821E-06	-1.170651E-05	7.387595E-07	4.361242E-08	-2.913396E-05	-1.900764E-05	5.892424E-06	7.106927E-06	1.712616E-05	7.217589E-06
-1.030506E-05	-4.907317E-06	-4.205272E-06	-6.444962E-06	-1.537699E-05	-7.488366E-06	-3.66821E-06	-1.170651E-05	7.387595E-07	4.361242E-08	-2.913396E-05	-1.900764E-05	5.892424E-06	7.106927E-06	1.712616E-05	7.217589E-06
-1.027947E-05	-4.514435E-06	-4.065031E-06	-3.251993E-06	-1.413454E-05	-7.399755E-06	-4.100615E-06	-1.708408E-05	-1.273056E-06	8.656849E-07	-2.887989E-05	-1.867435E-05	6.228507E-06	4.793207E-06	1.592722E-05	7.758301E-06
-1.027947E-05	-4.514435E-06	-4.065031E-06	-3.251993E-06	-1.413454E-05	-7.399755E-06	-4.100615E-06	-1.708408E-05	-1.273056E-06	8.656849E-07	-2.887989E-05	-1.867435E-05	6.228507E-06	4.793207E-06	1.592722E-05	7.758301E-06
-1.066675E-05	-3.547336E-06	-3.762859E-06	5.798077E-07	-1.354947E-05	-7.671372E-06	-4.472905E-06	-2.170272E-05	-3.475607E-06	1.403432E-06	-2.951102E-05	-1.785249E-05	6.040635E-06	3.885556E-06	1.628362E-05	6.910057E-06
-1.066675E-05	-3.547336E-06	-3.762859E-06	5.798077E-07	-1.354947E-05	-7.671372E-06	-4.472905E-06	-2.170272E-05	-3.475607E-06	1.403432E-06	-2.951102E-05	-1.785249E-05	6.040635E-06	3.885556E-06	1.628362E-05	6.910057E-06
-1.025551E-05	-3.178271E-06	-3.551895E-06	2.937221E-06	-1.36145E-05	-7.820899E-06	-3.184056E-06	-2.417834E-05	-3.61906E-06	2.063531E-06	-2.990817E-05	-1.686711E-05	6.026076E-06	5.028393E-06	1.689837E-05	4.989216E-06
-1.025551E-05	-3.178271E-06	-3.551895E-06	2.937221E-06	-1.36145E-05	-7.820899E-06	-3.184056E-06	-2.417834E-05	-3.61906E-06	2.063531E-06	-2.990817E-05	-1.686711E-05	6.026076E-06	5.028393E-06	1.689837E-05	4.989216E-06
-9.001853E-06	-4.052568E-06	-3.906705E-06	4.023699E-06	-1.365567E-05	-7.243753E-06	-3.924631E-07	-2.350383E-05	-2.294488E-06	2.776842E-06	-2.914546E-05	-1.567872E-05	6.349095E-06	8.071658E-06	1.750882E-05	4.697495E-06
-9.001853E-06	-4.052568E-06	-3.906705E-06	4.023699E-06	-1.365567E-05	-7.243753E-06	-3.924631E-07	-2.350383E-05	-2.294488E-06	2.776842E-06	-2.914546E-05	-1.567872E-05	6.349095E-06	8.071658E-06	1.750882E-05	4.697495E-06
-8.36708E-06	-5.118704E-06	-5.589406E-06	5.35711E-06	-1.381624E-05	-6.658353E-06	9.727155E-07	-1.95779E-05	-1.407158E-06	3.386323E-06	-2.788902E-05	-1.357756E-05	6.281003E-06	9.665423E-06	1.706862E-05	6.981733E-06
-8.36708E-06	-5.118704E-06	-5.589406E-06	5.35711E-06	-1.381624E-05	-6.658353E-06	9.727155E-07	-1.95779E-05	-1.407158E-06	3.386323E-06	-2.788902E-05	-1.357756E-05	6.281003E-06	9.665423E-06	1.706862E-05	6.981733E-06
-8.562032E-06	-5.334377E-06	-7.531627E-06	5.186631E-06	-1.438066E-05	-6.773232E-06	1.408157E-07	-1.515999E-05	-6.970342E-07	3.264061E-06	-2.691092E-05	-1.169667E-05	5.670643E-06	7.699029E-06	1.484447E-05	9.149056E-06
-8.562032E-06	-5.334377E-06	-7.531627E-06	5.186631E-06	-1.438066E-05	-6.773232E-06	1.408157E-07	-1.515999E-05	-6.970342E-07	3.264061E-06	-2.691092E-05	-1.169667E-05	5.670643E-06	7.699029E-06	1.484447E-05	9.149056E-06
-8.47614E-06	-4.812896E-06	-8.058836E-06	1.064693E-06	-1.491725E-05	-7.236029E-06	-1.059793E-06	-1.483906E-05	6.451878E-07	2.364864E-06	-2.605995E-05	-1.07121E-05	5.463849E-06	4.619812E-06	1.232871E-05	9.258441E-06
-8.47614E-06	-4.812896E-06	-8.058836E-06	1.064693E-06	-1.491725E-05	-7.236029E-06	-1.059793E-06	-1.483906E-05	6.451878E-07	2.364864E-06	-2.605995E-05	-1.07121E-05	5.463849E-06	4.619812E-06	1.232871E-05	9.258441E-06
-7.876256E-06	-4.285016E-06	-7.364165E-06	-5.697504E-06	-1.472464E-05	-7.095318E-06	-1.41371E-06	-2.041722E-05	1.909719E-06	1.824546E-06	-2.437311E-05	-1.233906E-05	6.346935E-06	3.23397E-06	1.181761E-05	8.198655E-06
-7.876256E-06	-4.285016E-06	-7.364165E-06	-5.697504E-06	-1.472464E-05	-7.095318E-06	-1.41371E-06	-2.041722E-05	1.909719E-06	1.824546E-06	-2.437311E-05	-1.233906E-05	6.346935E-06	3.23397E-06	1.181761E-05	8.198655E-06
-7.766585E-06	-4.053911E-06	-6.597762E-06	-1.219506E-05	-1.418123E-05	-6.118566E-06	-7.928111E-07	-2.778138E-05	2.363807E-06	1.950831E-06	-2.359179E-05	-1.512063E-05	7.005399E-06	2.980776E-06	1.267315E-05	8.186187E-06
-7.766585E-06	-4.053911E-06	-6.597762E-06	-1.219506E-05	-1.418123E-05	-6.118566E-06	-7.928111E-07	-2.778138E-05	2.363807E-06	1.950831E-06	-2.359179E-05	-1.512063E-05	7.005399E-06	2.980776E-06	1.267315E-05	8.186187E-06
-8.981474E-06	-3.858519E-06	-6.318236E-06	-1.715787E-05	-1.43146E-05	-5.491555E-06	2.493644E-07	-3.125088E-05	3.020479E-06	2.217336E-06	-2.478712E-05	-1.690169E-05	6.554235E-06	2.891583E-06	1.318685E-05	9.889064E-06
-8.981474E-06	-3.858519E-06	-6.318236E-06	-1.715787E-05	-1.43146E-05	-5.491555E-06	2.493644E-07	-3.125088E-05	3.020479E-06	2.217336E-06	-2.478712E-05	-1.690169E-05	6.554235E-06	2.891583E-06	1.318685E-05	9.889064E-06
-1.086519E-05	-3.663828E-06	-6.230422E-06	-2.148793E-05	-1.51042E-05	-6.452987E-06	8.380115E-07	-3.040245E-05	3.515768E-06	2.398558E-06	-2.657349E-05	-1.715269E-05	6.290829E-06	4.014377E-06	1.175513E-05	1.238143E-05
-1.086519E-05	-3.663828E-06	-6.230422E-06	-2.148793E-05	-1.51042E-05	-6.452987E-06	8.380115E-07	-3.040245E-05	3.515768E-06	2.398558E-06	-2.657349E-05	-1.715269E-05	6.290829E-06	4.014377E-06	1.175513E-05	1.238143E-05
-1.191418E-05	-3.717576E-06	-5.772608E-06	-2.506726E-05	-1.584632E-05	-7.855645E-06	5.639373E-07	-2.823119E-05	2.026238E-06	1.577326E-06	-2.697104E-05	-1.669915E-05	6.972378E-06	5.481676E-06	1.009015E-05	1.322587E-05
-1.191418E-05	-3.717576E-06	-5.772608E-06	-2.506726E-05	-1.584632E-05	-7.855645E-06	5.639373E-07	-2.823119E-05	2.026238E-06	1.577326E-06	-2.697104E-05	-1.669915E-05	6.972378E-06	5.481676E-06	1.009015E-05	1.322587E-05
-1.155392E-05	-4.098493E-06	-5.140228E-06	-2.567303E-05	-1.616193E-05	-7.452136E-06	-2.826086E-07	-2.608087E-05	1.378123E-07	6.643192E-08	-2.801037E-05	-1.573045E-05	7.501993E-06	5.071519E-06	9.060918E-06	1.211971E-05
-1.155392E-05	-4.098493E-06	-5.140228E-06	-2.567303E-05	-1.616193E-05	-7.452136E-06	-2.826086E-07	-2.608087E-05	1.378123E-07	6.643192E-08	-2.801037E-05	-1.573045E-05	7.501993E-06	5.071519E-06	9.060918E-06	1.211971E-05
-1.081856E-05	-4.544866E-06	-5.285892E-06	-2.338045E-05	-1.597227E-05	-5.92262E-06	-1.074342E-06	-2.343776E-05	-4.19125E-07	6.251068E-07	-3.053985E-05	-1.529868E-05	7.565398E-06	4.030057E-06	7.263776E-06	1.033516E-05
-1.081856E-05	-4.544866E-06	-5.285892E-06	-2.338045E-05	-1.597227E-05	-5.92262E-06	-1.074342E-06	-2.343776E-05	-4.19125E-07	6.251068E-07	-3.053985E-05	-1.529868E-05	7.565398E-06	4.030057E-06	7.263776E-06	1.033516E-05
-1.108723E-05	-4.489896E-06	-6.216352E-06	-2.123066E-05	-1.548341E-05	-5.429863E-06	-1.143354E-06	-1.975498E-05	5.46046E-08	3.76865E-06	-3.167254E-05	-1.661288E-05	7.091138E-06	4.516541E-06	6.086317E-06	1.011705E-05
-1.108723E-05	-4.489896E-06	-6.216352E-06	-2.123066E-05	-1.548341E-05	-5.429863E-06	-1.143354E-06	-1.975498E-05	5.46046E-08	3.76865E-06	-3.167254E-05	-1.661288E-05	7.091138E-06	4.516541E-06	6.086317E-06	1.011705E-05
-1.240046E-05	-3.668045E-06	-6.681342E-06	-2.110136E-05	-1.507475E-05	-6.062557E-06	-3.192437E-07	-1.567182E-05	-5.079221E-08	5.8119E-06	-3.145276E-05	-1.755798E-05	5.453184E-06	6.724122E-06	4.601843E-06	1.189707E-05
-1.240046E-05	-3.668045E-06	-6.681342E-06	-2.110136E-05	-1.507475E-05	-6.062557E-06	-3.192437E-07	-1.567182E-05	-5.079221E-08	5.8119E-06	-3.145276E-05	-1.755798E-05	5.453184E-06	6.724122E-06	4.601843E-06	1.189707E-05
-1.380227E-05	-2.685241E-06	-6.041662E-06	-2.188155E-05	-1.495021E-05	-6.58445E-06	6.10625E-07	-1.300328E-05	-1.412041E-06	5.639974E-06	-3.162218E-05	-1.739179E-05	3.843947E-06	6.302391E-06	4.018182E-06	1.280181E-05
-1.380227E-05	-2.685241E-06	-6.041662E-06	-2.188155E-05	-1.495021E-05	-6.58445E-06	6.10625E-07	-1.300328E-05	-1.412041E-06	5.639974E-06	-3.162218E-05	-1.739179E-05	3.843947E-06	6.302391E-06	4.018182E-06	1.280181E-05
-1.485839E-05	-1.977849E-06	-4.58892E-06	-2.183842E-05	-1.497142E-05	-6.498452E-06	7.094969E-07	-1.290228E-05	-3.257488E-06	3.242935E-06	-3.36039E-05	-1.775586E-05	3.871507E-06	4.021966E-06	4.069194E-06	1.329879E-05
-1.485839E-05	-1.977849E-06	-4.58892E-06	-2.183842E-05	-1.497142E-05	-6.498452E-06	7.094969E-07	-1.290228E-05	-3.257488E-06	3.242935E-06	-3.36039E-05	-1.775586E-05	3.871507E-06	4.021966E-06	4.069194E-06	1.329879E-05
-1.540077E-05	-1.120666E-06	-3.411275E-06	-2.086215E-05	-1.48672E-05	-6.580976E-06	-2.071294E-07	-1.438993E-05	-4.205509E-06	7.590351E-07	-3.554638E-05	-1.970039E-05	4.652204E-06	3.80506E-06	2.635758E-06	1.308905E-05
-1.540077E-05	-1.120666E-06	-3.411275E-06	-2.086215E-05	-1.48672E-05	-6.580976E-06	-2.071294E-07	-1.438993E-05	-4.205509E-06	7.590351E-07	-3.554638E-05	-1.970039E-05	4.652204E-06	3.80506E-06	2.635758E-06	1.308905E-05
-1.512037E-05	1.626149E-07	-3.420963E-06	-1.950163E-05	-1.501068E-05	-6.920751E-06	-1.351553E-06	-1.508225E-05	-1.336514E-06	2.042245E-07	-3.553385E-05	-1.802015E-05	6.759088E-06	3.778099E-06	1.745891E-06	1.297226E-05
-1.512037E-05	1.626149E-07	-3.420963E-06	-1.950163E-05	-1.501068E-05	-6.920751E-06	-1.351553E-06	-1.508225E-05	-1.336514E-06	2.042245E-07	-3.553385E-05	-1.802015E-05	6.759088E-06	3.778099E-06	1.745891E-06	1.297226E-05
-1.444287E-05	1.387023E-06	-3.662141E-06	-1.852324E-05	-1.606722E-05	-6.421477E-06	-1.39934E-06	-1.28732E-05	2.490699E-06	9.074441E-07	-3.511066E-05	-1.451605E-05	8.330032E-06	3.763404E-06	1.182573E-06	1.437743E-05
-1.444287E-05	1.387023E-06	-3.662141E-06	-1.852324E-05	-1.606722E-05	-6.421477E-06	-1.39934E-06	-1.28732E-05	2.490699E-06	9.074441E-07	-3.511066E-05	-1.451605E-05	8.330032E-06	3.763404E-06	1.182573E-06	1.437743E-05
-1.36962E-05	1.29563E-06	-3.371864E-06	-1.902816E-05	-1.74827E-05	-5.360537E-06	-1.046104E-07	-8.000416E-06	3.236787E-06	1.6048E-06	-3.393215E-05	-1.369453E-05	7.385091E-06	4.85118E-06	1.445861E-06	1.674789E-05
-1.36962E-05	1.29563E-06	-3.371864E-06	-1.902816E-05	-1.74827E-05	-5.360537E-06	-1.046104E-07	-8.000416E-06	3.236787E-06	1.6048E-06	-3.393215E-05	-1.369453E-05	7.385091E-06	4.85118E-06	1.445861E-06	1.674789E-05
-1.272829E-05	-7.612499E-07	-3.021692E-06	-2.002695E-05	-1.800816E-05	-4.909795E-06	1.197751E-06	-3.074096E-06	1.811358E-06	8.674932E-07	-3.214703E-05	-1.424422E-05	6.76742E-06	5.481585E-06	1.733435E-06	1.710127E-05
-1.272829E-05	-7.612499E-07	-3.021692E-06	-2.002695E-05	-1.800816E-05	-4.909795E-06	1.197751E-06	-3.074096E-06	1.811358E-06	8.674932E-07	-3.214703E-05	-1.424422E-05	6.76742E-06	5.481585E-06	1.733435E-06	1.710127E-05
-1.210093E-05	-3.477959E-06	-2.465651E-06	-1.893017E-05	-1.746973E-05	-5.106188E-06	1.347167E-06	-4.700264E-07	1.366222E-08	7.724818E-07	-3.130516E-05	-1.489651E-05	7.611457E-06	6.574916E-06	1.4364E-06	1.487173E-05
-1.210093E-05	-3.477959E-06	-2.465651E-06	-1.893017E-05	-1.746973E-05	-5.106188E-06	1.347167E-06	-4.700264E-07	1.366222E-08	7.724818E-07	-3.130516E-05	-1.489651E-05	7.611457E-06	6.574916E-06	1.4364E-06	1.487173E-05
-1.233411E-05	-5.094239E-06	-1.591192E-06	-1.60994E-05	-1.697685E-05	-5.480289E-06	7.148497E-07	-6.847663E-07	-1.115337E-06	1.985431E-06	-3.111501E-05	-1.569831E-05	8.679499E-06	8.140341E-06	1.738819E-06	1.284479E-05
-1.233411E-05	-5.094239E-06	-1.591192E-06	-1.60994E-05	-1.697685E-05	-5.480289E-06	7.148497E-07	-6.847663E-07	-1.115337E-06	1.985431E-06	-3.111501E-05	-1.569831E-05	8.679499E-06	8.140341E-06	1.738819E-06	1.284479E-05
-1.308373E-05	-5.238066E-06	-1.095935E-06	-1.367157E-05	-1.753524E-05	-6.135929E-06	9.177131E-08	-3.007773E-06	-1.64664E-06	3.291448E-06	-3.154254E-05	-1.752651E-05	9.298699E-06	7.947194E-06	2.445683E-06	1.292477E-05
-1.308373E-05	-5.238066E-06	-1.095935E-06	-1.367157E-05	-1.753524E-05	-6.135929E-06	9.177131E-08	-3.007773E-06	-1.64664E-06	3.291448E-06	-3.154254E-05	-1.752651E-05	9.298699E-06	7.947194E-06	2.445683E-06	1.292477E-05
-1.394054E-05	-4.959577E-06	-1.394127E-06	-1.166186E-05	-1.883016E-05	-7.478737E-06	-7.777794E-07	-6.956791E-06	-1.559226E-06	3.175111E-06	-3.216671E-05	-1.864697E-05	9.724782E-06	6.106224E-06	1.572229E-06	1.399938E-05
-1.394054E-05	-4.959577E-06	-1.394127E-06	-1.166186E-05	-1.883016E-05	-7.478737E-06	-7.777794E-07	-6.956791E-06	-1.559226E-06	3.175111E-06	-3.216671E-05	-1.864697E-05	9.724782E-06	6.106224E-06	1.572229E-06	1.399938E-05
-1.484011E-05	-5.438197E-06	-2.150545E-06	-9.975451E-06	-1.974151E-05	-8.871033E-06	-2.304226E-06	-1.212785E-05	-1.020662E-06	1.43475E-06	-3.216041E-05	-1.966858E-05	9.785833E-06	3.528403E-06	3.159836E-07	1.520762E-05
-1.484011E-05	-5.438197E-06	-2.150545E-06	-9.975451E-06	-1.974151E-05	-8.871033E-06	-2.304226E-06	-1.212785E-05	-1.020662E-06	1.43475E-06	-3.216041E-05	-1.966858E-05	9.785833E-06	3.528403E-06	3.159836E-07	1.520762E-05
-1.561077E-05	-6.727852E-06	-2.76153E-06	-9.358409E-06	-1.946491E-05	-9.031515E-06	-3.697156E-06	-1.721311E-05	-8.716008E-07	1.482911E-06	-3.209609E-05	-2.103214E-05	8.540273E-06	2.766002E-06	1.55611E-07	1.651321E-05
-1.561077E-05	-6.727852E-06	-2.76153E-06	-9.358409E-06	-1.946491E-05	-9.031515E-06	-3.697156E-06	-1.721311E-05	-8.716008E-07	1.482911E-06	-3.209609E-05	-2.103214E-05	8.540273E-06	2.766002E-06	1.55611E-07	1.651321E-05
-1.578772E-05	-7.863764E-06	-2.892281E-06	-9.041702E-06	-1.807826E-05	-8.096071E-06	-3.512418E-06	-2.078816E-05	-1.742738E-06	2.805995E-06	-3.31038E-05	-2.29357E-05	7.621199E-06	3.922511E-06	7.179072E-07	1.749448E-05
-1.578772E-05	-7.863764E-06	-2.892281E-06	-9.041702E-06	-1.807826E-05	-8.096071E-06	-3.512418E-06	-2.078816E-05	-1.742738E-06	2.805995E-06	-3.31038E-05	-2.29357E-05	7.621199E-06	3.922511E-06	7.179072E-07	1.749448E-05
-1.529076E-05	-7.968179E-06	-2.539361E-06	-7.721432E-06	-1.674005E-05	-7.210305E-06	-1.784912E-06	-2.340134E-05	-1.879313E-06	3.054275E-06	-3.344304E-05	-2.543387E-05	6.652562E-06	5.557782E-06	3.973388E-07	1.691354E-05
-1.529076E-05	-7.968179E-06	-2.539361E-06	-7.721432E-06	-1.674005E-05	-7.210305E-06	-1.784912E-06	-2.340134E-05	-1.879313E-06	3.054275E-06	-3.344304E-05	-2.543387E-05	6.652562E-06	5.557782E-06	3.973388E-07	1.691354E-05
-1.463279E-05	-6.967964E-06	-1.860409E-06	-5.606343E-06	-1.657804E-05	-7.004415E-06	-4.288096E-07	-2.64038E-05	-1.286189E-06	2.218906E-06	-3.257687E-05	-2.736981E-05	5.322356E-06	7.223394E-06	-1.390234E-06	1.447177E-05
-1.463279E-05	-6.967964E-06	-1.860409E-06	-5.606343E-06	-1.657804E-05	-7.004415E-06	-4.288096E-07	-2.64038E-05	-1.286189E-06	2.218906E-06	-3.257687E-05	-2.736981E-05	5.322356E-06	7.223394E-06	-1.390234E-06	1.447177E-05
-1.421438E-05	-5.407393E-06	-1.155825E-06	-3.970743E-06	-1.711764E-05	-7.516841E-06	-7.935112E-07	-2.845868E-05	-4.817784E-07	9.803128E-07	-3.127725E-05	-2.815681E-05	4.334972E-06	9.008373E-06	-3.318689E-06	1.161117E-05
-1.421438E-05	-5.407393E-06	-1.155825E-06	-3.970743E-06	-1.711764E-05	-7.516841E-06	-7.935112E-07	-2.845868E-05	-4.817784E-07	9.803128E-07	-3.127725E-05	-2.815681E-05	4.334972E-06	9.008373E-06	-3.318689E-06	1.161117E-05
-1.405229E-05	-4.094511E-06	-9.435206E-07	-3.526563E-06	-1.732717E-05	-8.424089E-06	-2.120275E-06	-2.719698E-05	8.735005E-07	2.818164E-07	-3.008614E-05	-2.855656E-05	4.593347E-06	9.984929E-06	-4.474914E-06	9.498603E-06
-1.405229E-05	-4.094511E-06	-9.435206E-07	-3.526563E-06	-1.732717E-05	-8.424089E-06	-2.120275E-06	-2.719698E-05	8.735005E-07	2.818164E-07	-3.008614E-05	-2.855656E-05	4.593347E-06	9.984929E-06	-4.474914E-06	9.498603E-06
-1.39215E-05	-3.599643E-06	-1.609412E-06	-4.090416E-06	-1.71748E-05	-9.154212E-06	-2.639918E-06	-2.296913E-05	3.014938E-06	-3.217819E-07	-2.959456E-05	-2.907722E-05	5.797341E-06	9.249567E-06	-4.531899E-06	9.554552E-06
-1.39215E-05	-3.599643E-06	-1.609412E-06	-4.090416E-06	-1.71748E-05	-9.154212E-06	-2.639918E-06	-2.296913E-05	3.014938E-06	-3.217819E-07	-2.959456E-05	-2.907722E-05	5.797341E-06	9.249567E-06	-4.531899E-06	9.554552E-06
-1.3544E-05	-3.797108E-06	-2.612224E-06	-5.994223E-06	-1.671475E-05	-9.165011E-06	-1.956485E-06	-1.883976E-05	4.489024E-06	-1.173354E-06	-3.014825E-05	-2.886103E-05	6.507134E-06	7.649393E-06	-3.909429E-06	9.964394E-06
-1.3544E-05	-3.797108E-06	-2.612224E-06	-5.994223E-06	-1.671475E-05	-9.165011E-06	-1.956485E-06	-1.883976E-05	4.489024E-06	-1.173354E-06	-3.014825E-05	-2.886103E-05	6.507134E-06	7.649393E-06	-3.909429E-06	9.964394E-06
-1.282481E-05	-4.006448E-06	-2.963408E-06	-8.892186E-06	-1.590748E-05	-8.676924E-06	-1.11221E-06	-1.723664E-05	4.528677E-06	-2.323812E-06	-3.051006E-05	-2.780816E-05	6.43785E-06	5.711873E-06	-2.668252E-06	8.751985E-06
-1.282481E-05	-4.006448E-06	-2.963408E-06	-8.892186E-06	-1.590748E-05	-8.676924E-06	-1.11221E-06	-1.723664E-05	4.528677E-06	-2.323812E-06	-3.051006E-05	-2.780816E-05	6.43785E-06	5.711873E-06	-2.668252E-06	8.751985E-06
-1.200259E-05	-3.655979E-06	-2.627308E-06	-1.028244E-05	-1.541377E-05	-8.808121E-06	-5.804464E-07	-1.670566E-05	4.701671E-06	-2.990215E-06	-2.951248E-05	-2.700039E-05	5.533216E-06	4.455991E-06	-1.893201E-06	7.839354E-06
-1.200259E-05	-3.655979E-06	-2.627308E-06	-1.028244E-05	-1.541377E-05	-8.808121E-06	-5.804464E-07	-1.670566E-05	4.701671E-06	-2.990215E-06	-2.951248E-05	-2.700039E-05	5.533216E-06	4.455991E-06	-1.893201E-06	7.839354E-06
-1.190454E-05	-3.186819E-06	-2.493298E-06	-9.376349E-06	-1.554464E-05	-9.77526E-06	-4.510891E-07	-1.472867E-05	6.114322E-06	-2.010026E-06	-2.827455E-05	-2.618629E-05	4.050732E-06	4.179473E-06	-1.537296E-06	9.224473E-06
-1.190454E-05	-3.186819E-06	-2.493298E-06	-9.376349E-06	-1.554464E-05	-9.77526E-06	-4.510891E-07	-1.472867E-05	6.114322E-06	-2.010026E-06	-2.827455E-05	-2.618629E-05	4.050732E-06	4.179473E-06	-1.537296E-06	9.224473E-06
-1.298261E-05	-3.53227E-06	-2.932978E-06	-8.366473E-06	-1.592402E-05	-1.017978E-05	-1.107481E-06	-1.205484E-05	6.346374E-06	-5.396121E-07	-2.722491E-05	-2.45352E-05	3.174241E-06	3.864169E-06	-2.39289E-07	9.764584E-06
-1.298261E-05	-3.53227E-06	-2.932978E-06	-8.366473E-06	-1.592402E-05	-1.017978E-05	-1.107481E-06	-1.205484E-05	6.346374E-06	-5.396121E-07	-2.722491E-05	-2.45352E-05	3.174241E-06	3.864169E-06	-2.39289E-07	9.764584E-06
-1.394715E-05	-4.438575E-06	-2.976958E-06	-8.110118E-06	-1.664026E-05	-9.031233E-06	-2.463485E-06	-1.133221E-05	4.118795E-06	-9.436889E-09	-2.603382E-05	-2.278982E-05	3.573894E-06	3.854567E-06	9.999479E-07	8.612225E-06
-1.394715E-05	-4.438575E-06	-2.976958E-06	-8.110118E-06	-1.664026E-05	-9.031233E-06	-2.463485E-06	-1.133221E-05	4.118795E-06	-9.436889E-09	-2.603382E-05	-2.278982E-05	3.573894E-06	3.854567E-06	9.999479E-07	8.612225E-06
-1.374075E-05	-4.806898E-06	-1.855553E-06	-7.375425E-06	-1.744727E-05	-7.496454E-06	-3.969022E-06	-1.259167E-05	1.778588E-06	1.080753E-06	-2.509133E-05	-1.976809E-05	3.868435E-06	3.868399E-06	1.866968E-06	7.696484E-06
-1.374075E-05	-4.806898E-06	-1.855553E-06	-7.375425E-06	-1.744727E-05	-7.496454E-06	-3.969022E-06	-1.259167E-05	1.778588E-06	1.080753E-06	-2.509133E-05	-1.976809E-05	3.868435E-06	3.868399E-06	1.866968E-06	7.696484E-06
-1.328695E-05	-4.321627E-06	-3.427884E-07	-5.52027E-06	-1.739121E-05	-7.500877E-06	-5.192201E-06	-1.307502E-05	8.118445E-07	2.500537E-06	-2.587651E-05	-1.718929E-05	4.79143E-06	3.851163E-06	4.634138E-06	5.557538E-06
-1.328695E-05	-4.321627E-06	-3.427884E-07	-5.52027E-06	-1.739121E-05	-7.500877E-06	-5.192201E-06	-1.307502E-05	8.118445E-07	2.500537E-06	-2.587651E-05	-1.718929E-05	4.79143E-06	3.851163E-06	4.634138E-06	5.557538E-06
-1.290482E-05	-3.62714E-06	8.538062E-07	-3.013525E-06	-1.638475E-05	-9.057789E-06	-5.897055E-06	-1.202284E-05	1.150502E-06	3.396651E-06	-2.757021E-05	-1.80657E-05	6.366578E-06	5.019604E-06	5.929492E-06	3.611763E-06
-1.290482E-05	-3.62714E-06	8.538062E-07	-3.013525E-06	-1.638475E-05	-9.057789E-06	-5.897055E-06	-1.202284E-05	1.150502E-06	3.396651E-06	-2.757021E-05	-1.80657E-05	6.366578E-06	5.019604E-06	5.929492E-06	3.611763E-06
-1.19066E-05	-3.332297E-06	1.685155E-06	-5.568738E-07	-1.525458E-05	-1.079812E-05	-6.208501E-06	-1.061539E-05	2.301055E-06	4.460102E-06	-2.586702E-05	-2.02884E-05	6.69955E-06	7.568386E-06	6.656933E-06	4.448571E-06
-1.19066E-05	-3.332297E-06	1.685155E-06	-5.568738E-07	-1.525458E-05	-1.079812E-05	-6.208501E-06	-1.061539E-05	2.301055E-06	4.460102E-06	-2.586702E-05	-2.02884E-05	6.69955E-06	7.568386E-06	6.656933E-06	4.448571E-06
-1.12951E-05	-3.504071E-06	1.090885E-06	9.55194E-08	-1.524481E-05	-1.112325E-05	-6.422768E-06	-9.610335E-06	2.652527E-06	4.293676E-06	-2.33944E-05	-2.042587E-05	6.15096E-06	8.464407E-06	8.896919E-06	4.044757E-06
-1.12951E-05	-3.504071E-06	1.090885E-06	9.55194E-08	-1.524481E-05	-1.112325E-05	-6.422768E-06	-9.610335E-06	2.652527E-06	4.293676E-06	-2.33944E-05	-2.042587E-05	6.15096E-06	8.464407E-06	8.896919E-06	4.044757E-06
-1.177795E-05	-3.813465E-06	-1.29924E-06	-1.453556E-06	-1.62867E-05	-9.833031E-06	-6.465305E-06	-1.008082E-05	1.383659E-06	4.13505E-06	-2.418709E-05	-1.920262E-05	6.793548E-06	7.654661E-06	1.113E-05	2.728441E-06
-1.177795E-05	-3.813465E-06	-1.29924E-06	-1.453556E-06	-1.62867E-05	-9.833031E-06	-6.465305E-06	-1.008082E-05	1.383659E-06	4.13505E-06	-2.418709E-05	-1.920262E-05	6.793548E-06	7.654661E-06	1.113E-05	2.728441E-06
-1.185014E-05	-3.663357E-06	-3.354057E-06	-1.941943E-06	-1.638552E-05	-9.138384E-06	-6.209926E-06	-1.184796E-05	-7.905783E-08	3.639074E-06	-2.484908E-05	-1.79364E-05	7.375174E-06	7.560546E-06	1.390727E-05	3.469168E-06
-1.185014E-05	-3.663357E-06	-3.354057E-06	-1.941943E-06	-1.638552E-05	-9.138384E-06	-6.209926E-06	-1.184796E-05	-7.905783E-08	3.639074E-06	-2.484908E-05	-1.79364E-05	7.375174E-06	7.560546E-06	1.390727E-05	3.469168E-06
-1.129625E-05	-2.834229E-06	-3.812963E-06	-8.296236E-07	-1.567394E-05	-9.362751E-06	-5.83825E-06	-1.300006E-05	-8.485698E-07	3.590553E-06	-2.574409E-05	-1.708886E-05	7.835756E-06	7.780225E-06	1.755631E-05	5.86211E-06
-1.129625E-05	-2.834229E-06	-3.812963E-06	-8.296236E-07	-1.567394E-05	-9.362751E-06	-5.83825E-06	-1.300006E-05	-8.485698E-07	3.590553E-06	-2.574409E-05	-1.708886E-05	7.835756E-06	7.780225E-06	1.755631E-05	5.86211E-06
-1.134106E-05	-1.727253E-06	-3.421795E-06	-1.775206E-06	-1.588031E-05	-8.968413E-06	-5.622827E-06	-1.296916E-05	-1.554844E-06	4.778539E-06	-2.763097E-05	-1.617848E-05	8.770103E-06	7.696541E-06	1.94734E-05	7.531517E-06
-1.134106E-05	-1.727253E-06	-3.421795E-06	-1.775206E-06	-1.588031E-05	-8.968413E-06	-5.622827E-06	-1.296916E-05	-1.554844E-06	4.778539E-06	-2.763097E-05	-1.617848E-05	8.770103E-06	7.696541E-06	1.94734E-05	7.531517E-06
-1.193223E-05	-8.39773E-07	-2.888426E-06	-6.244396E-06	-1.644032E-05	-8.640429E-06	-5.775495E-06	-1.286291E-05	-1.07656E-06	4.251184E-06	-2.846704E-05	-1.474087E-05	9.32188E-06	6.01692E-06	1.87066E-05	8.954767E-06
-1.193223E-05	-8.39773E-07	-2.888426E-06	-6.244396E-06	-1.644032E-05	-8.640429E-06	-5.775495E-06	-1.286291E-05	-1.07656E-06	4.251184E-06	-2.846704E-05	-1.474087E-05	9.32188E-06	6.01692E-06	1.87066E-05	8.954767E-06
-1.27305E-05	-7.391568E-07	-3.239684E-06	-1.250956E-05	-1.629599E-05	-9.127398E-06	-6.199632E-06	-1.352088E-05	-2.469945E-07	2.213747E-06	-2.788381E-05	-1.364654E-05	9.970077E-06	4.10758E-06	1.829112E-05	1.056885E-05
-1.27305E-05	-7.391568E-07	-3.239684E-06	-1.250956E-05	-1.629599E-05	-9.127398E-06	-6.199632E-06	-1.352088E-05	-2.469945E-07	2.213747E-06	-2.788381E-05	-1.364654E-05	9.970077E-06	4.10758E-06	1.829112E-05	1.056885E-05
-1.321844E-05	-1.290208E-06	-4.990038E-06	-1.792083E-05	-1.596828E-05	-9.634316E-06	-6.416387E-06	-1.450691E-05	-2.193992E-06	1.276666E-06	-2.695949E-05	-1.303819E-05	1.202436E-05	4.097635E-06	1.887448E-05	1.173213E-05
-1.321844E-05	-1.290208E-06	-4.990038E-06	-1.792083E-05	-1.596828E-05	-9.634316E-06	-6.416387E-06	-1.450691E-05	-2.193992E-06	1.276666E-06	-2.695949E-05	-1.303819E-05	1.202436E-05	4.097635E-06	1.887448E-05	1.173213E-05
-1.215615E-05	-1.262578E-06	-6.799448E-06	-2.042848E-05	-1.6569E-05	-9.842817E-06	-6.176516E-06	-1.449908E-05	-3.69718E-06	3.040908E-06	-2.683185E-05	-1.366055E-05	1.309995E-05	6.28459E-06	1.969323E-05	1.285189E-05
-1.215615E-05	-1.262578E-06	-6.799448E-06	-2.042848E-05	-1.6569E-05	-9.842817E-06	-6.176516E-06	-1.449908E-05	-3.69718E-06	3.040908E-06	-2.683185E-05	-1.366055E-05	1.309995E-05	6.28459E-06	1.969323E-05	1.285189E-05
-1.037091E-05	-4.187268E-07	-7.860775E-06	-2.012884E-05	-1.868782E-05	-1.001978E-05	-6.123125E-06	-1.349223E-05	-3.558761E-06	5.043415E-06	-2.861858E-05	-1.462954E-05	1.275373E-05	7.852016E-06	2.047722E-05	1.323334E-05
-1.037091E-05	-4.187268E-07	-7.860775E-06	-2.012884E-05	-1.868782E-05	-1.001978E-05	-6.123125E-06	-1.349223E-05	-3.558761E-06	5.043415E-06	-2.861858E-05	-1.462954E-05	1.275373E-05	7.852016E-06	2.047722E-05	1.323334E-05
-1.022251E-05	-1.692876E-07	-8.505655E-06	-1.813695E-05	-2.219675E-05	-9.879056E-06	-6.647224E-06	-1.271272E-05	-3.766346E-06	4.78105E-06	-2.945445E-05	-1.460962E-05	1.22443E-05	7.3754E-06	2.068095E-05	1.352484E-05
-1.022251E-05	-1.692876E-07	-8.505655E-06	-1.813695E-05	-2.219675E-05	-9.879056E-06	-6.647224E-06	-1.271272E-05	-3.766346E-06	4.78105E-06	-2.945445E-05	-1.460962E-05	1.22443E-05	7.3754E-06	2.068095E-05	1.352484E-05
-1.149667E-05	-1.464304E-06	-8.215573E-06	-1.440261E-05	-2.657639E-05	-8.682292E-06	-6.621057E-06	-1.157579E-05	-6.538476E-06	2.30984E-06	-2.913403E-05	-1.427375E-05	1.173004E-05	6.310314E-06	1.95487E-05	1.396478E-05
-1.149667E-05	-1.464304E-06	-8.215573E-06	-1.440261E-05	-2.657639E-05	-8.682292E-06	-6.621057E-06	-1.157579E-05	-6.538476E-06	2.30984E-06	-2.913403E-05	-1.427375E-05	1.173004E-05	6.310314E-06	1.95487E-05	1.396478E-05
-1.225089E-05	-3.605812E-06	-7.198019E-06	-9.6814E-06	-3.032636E-05	-6.962281E-06	-5.608356E-06	-7.676074E-06	-8.522895E-06	1.284652E-06	-2.973609E-05	-1.460627E-05	1.033562E-05	5.390023E-06	1.865335E-05	1.387062E-05
-1.225089E-05	-3.605812E-06	-7.198019E-06	-9.6814E-06	-3.032636E-05	-6.962281E-06	-5.608356E-06	-7.676074E-06	-8.522895E-06	1.284652E-06	-2.973609E-05	-1.460627E-05	1.033562E-05	5.390023E-06	1.865335E-05	1.387062E-05
-1.175348E-05	-5.056801E-06	-6.991586E-06	-6.072445E-06	-3.168344E-05	-6.305473E-06	-4.987323E-06	2.4481E-06	-7.496372E-06	2.063939E-06	-3.144126E-05	-1.458885E-05	8.598381E-06	5.215461E-06	1.91243E-05	1.293998E-05
-1.175348E-05	-5.056801E-06	-6.991586E-06	-6.072445E-06	-3.168344E-05	-6.305473E-06	-4.987323E-06	2.4481E-06	-7.496372E-06	2.063939E-06	-3.144126E-05	-1.458885E-05	8.598381E-06	5.215461E-06	1.91243E-05	1.293998E-05
-1.055228E-05	-4.992954E-06	-7.466243E-06	-3.648706E-06	-3.10443E-05	-6.666193E-06	-5.327703E-06	2.17477E-05	-5.247777E-06	2.060168E-06	-3.330654E-05	-1.327792E-05	7.483914E-06	5.31219E-06	1.989409E-05	1.29124E-05
-1.055228E-05	-4.992954E-06	-7.466243E-06	-3.648706E-06	-3.10443E-05	-6.666193E-06	-5.327703E-06	2.17477E-05	-5.247777E-06	2.060168E-06	-3.330654E-05	-1.327792E-05	7.483914E-06	5.31219E-06	1.989409E-05	1.29124E-05
-9.700938E-06	-3.728037E-06	-7.354511E-06	-2.160867E-06	-3.005973E-05	-6.848058E-06	-5.790554E-06	4.359865E-05	-3.436661E-06	1.325385E-06	-3.429647E-05	-1.269751E-05	7.818416E-06	5.372171E-06	1.988579E-05	1.417277E-05
-9.700938E-06	-3.728037E-06	-7.354511E-06	-2.160867E-06	-3.005973E-05	-6.848058E-06	-5.790554E-06	4.359865E-05	-3.436661E-06	1.325385E-06	-3.429647E-05	-1.269751E-05	7.818416E-06	5.372171E-06	1.988579E-05	1.417277E-05
-9.827926E-06	-2.184913E-06	-6.658576E-06	-3.744146E-06	-2.915718E-05	-6.69119E-06	-5.590015E-06	5.1271E-05	-1.498531E-06	1.931125E-06	-3.406745E-05	-1.375693E-05	9.705402E-06	4.73204E-06	2.051632E-05	1.583988E-05
-9.827926E-06	-2.184913E-06	-6.658576E-06	-3.744146E-06	-2.915718E-05	-6.69119E-06	-5.590015E-06	5.1271E-05	-1.498531E-06	1.931125E-06	-3.406745E-05	-1.375693E-05	9.705402E-06	4.73204E-06	2.051632E-05	1.583988E-05
-1.032196E-05	-1.677499E-06	-6.141551E-06	-9.291365E-06	-2.824973E-05	-6.652863E-06	-4.475833E-06	3.678651E-05	-1.395982E-07	3.490249E-06	-3.321646E-05	-1.449796E-05	1.067335E-05	4.152046E-06	2.216026E-05	1.752391E-05
-1.032196E-05	-1.677499E-06	-6.141551E-06	-9.291365E-06	-2.824973E-05	-6.652863E-06	-4.475833E-06	3.678651E-05	-1.395982E-07	3.490249E-06	-3.321646E-05	-1.449796E-05	1.067335E-05	4.152046E-06	2.216026E-05	1.752391E-05
-1.037354E-05	-2.686784E-06	-6.208573E-06	-1.633904E-05	-2.753247E-05	-6.554565E-06	-2.654909E-06	8.07831E-06	-3.49194E-07	4.547949E-06	-3.316515E-05	-1.487261E-05	9.847723E-06	5.293517E-06	2.255266E-05	1.833523E-05
-1.037354E-05	-2.686784E-06	-6.208573E-06	-1.633904E-05	-2.753247E-05	-6.554565E-06	-2.654909E-06	8.07831E-06	-3.49194E-07	4.547949E-06	-3.316515E-05	-1.487261E-05	9.847723E-06	5.293517E-06	2.255266E-05	1.833523E-05
-1.031216E-05	-3.818256E-06	-6.634355E-06	-2.210652E-05	-2.673999E-05	-5.703336E-06	-4.550733E-07	-2.342287E-05	-1.200025E-06	4.768456E-06	-3.425662E-05	-1.605921E-05	9.382829E-06	7.374793E-06	2.09398E-05	1.713366E-05
-1.031216E-05	-3.818256E-06	-6.634355E-06	-2.210652E-05	-2.673999E-05	-5.703336E-06	-4.550733E-07	-2.342287E-05	-1.200025E-06	4.768456E-06	-3.425662E-05	-1.605921E-05	9.382829E-06	7.374793E-06	2.09398E-05	1.713366E-05
-1.038178E-05	-3.735299E-06	-6.956414E-06	-2.594438E-05	-2.561903E-05	-4.669675E-06	1.699765E-06	-4.823858E-05	-3.759807E-06	4.146183E-06	-3.472328E-05	-1.682754E-05	9.633333E-06	8.504941E-06	2.035622E-05	1.594745E-05
-1.038178E-05	-3.735299E-06	-6.956414E-06	-2.594438E-05	-2.561903E-05	-4.669675E-06	1.699765E-06	-4.823858E-05	-3.759807E-06	4.146183E-06	-3.472328E-05	-1.682754E-05	9.633333E-06	8.504941E-06	2.035622E-05	1.594745E-05
-1.002741E-05	-2.860092E-06	-6.876535E-06	-2.828403E-05	-2.463812E-05	-4.97314E-06	2.815837E-06	-6.052616E-05	-7.489837E-06	3.697058E-06	-3.455698E-05	-1.636113E-05	1.075966E-05	8.324986E-06	2.269618E-05	1.562093E-05
-1.002741E-05	-2.860092E-06	-6.876535E-06	-2.828403E-05	-2.463812E-05	-4.97314E-06	2.815837E-06	-6.052616E-05	-7.489837E-06	3.697058E-06	-3.455698E-05	-1.636113E-05	1.075966E-05	8.324986E-06	2.269618E-05	1.562093E-05
-9.380968E-06	-2.326495E-06	-6.135868E-06	-2.872683E-05	-2.440002E-05	-6.24547E-06	1.707402E-06	-6.25242E-05	-9.376943E-06	3.517718E-06	-3.554731E-05	-1.621407E-05	1.201718E-05	7.45057E-06	2.474369E-05	1.462106E-05
-9.380968E-06	-2.326495E-06	-6.135868E-06	-2.872683E-05	-2.440002E-05	-6.24547E-06	1.707402E-06	-6.25242E-05	-9.376943E-06	3.517718E-06	-3.554731E-05	-1.621407E-05	1.201718E-05	7.45057E-06	2.474369E-05	1.462106E-05
-9.446536E-06	-2.729751E-06	-4.891686E-06	-2.778537E-05	-2.489321E-05	-6.832644E-06	-9.968516E-07	-5.954936E-05	-6.877568E-06	3.533444E-06	-3.655749E-05	-1.633738E-05	1.148831E-05	6.01761E-06	2.565242E-05	1.3411E-05
-9.446536E-06	-2.729751E-06	-4.891686E-06	-2.778537E-05	-2.489321E-05	-6.832644E-06	-9.968516E-07	-5.954936E-05	-6.877568E-06	3.533444E-06	-3.655749E-05	-1.633738E-05	1.148831E-05	6.01761E-06	2.565242E-05	1.3411E-05
-1.064079E-05	-3.762291E-06	-3.863305E-06	-2.751249E-05	-2.555485E-05	-6.356041E-06	-2.951183E-06	-5.383684E-05	-3.145608E-06	3.515224E-06	-3.833311E-05	-1.623558E-05	1.134625E-05	5.754923E-06	2.663926E-05	1.28169E-05
-1.064079E-05	-3.762291E-06	-3.863305E-06	-2.751249E-05	-2.555485E-05	-6.356041E-06	-2.951183E-06	-5.383684E-05	-3.145608E-06	3.515224E-06	-3.833311E-05	-1.623558E-05	1.134625E-05	5.754923E-06	2.663926E-05	1.28169E-05
-1.204457E-05	-4.196152E-06	-3.729875E-06	-2.781833E-05	-2.547737E-05	-5.896013E-06	-3.103151E-06	-4.720881E-05	-2.171781E-06	4.396434E-06	-3.967748E-05	-1.473874E-05	1.116445E-05	6.8352E-06	2.529558E-05	1.371206E-05
-1.204457E-05	-4.196152E-06	-3.729875E-06	-2.781833E-05	-2.547737E-05	-5.896013E-06	-3.103151E-06	-4.720881E-05	-2.171781E-06	4.396434E-06	-3.967748E-05	-1.473874E-05	1.116445E-05	6.8352E-06	2.529558E-05	1.371206E-05
-1.275618E-05	-3.536897E-06	-4.694129E-06	-2.680755E-05	-2.366695E-05	-6.340927E-06	-1.644716E-06	-4.036599E-05	-1.80988E-06	5.750826E-06	-4.221511E-05	-1.418061E-05	1.158665E-05	7.477565E-06	2.17245E-05	1.660347E-05
-1.275618E-05	-3.536897E-06	-4.694129E-06	-2.680755E-05	-2.366695E-05	-6.340927E-06	-1.644716E-06	-4.036599E-05	-1.80988E-06	5.750826E-06	-4.221511E-05	-1.418061E-05	1.158665E-05	7.477565E-06	2.17245E-05	1.660347E-05
-1.277919E-05	-3.588225E-06	-5.810196E-06	-2.415552E-05	-2.064104E-05	-6.883966E-06	9.747082E-07	-3.268381E-05	-2.263066E-07	4.869612E-06	-4.381733E-05	-1.557551E-05	1.183652E-05	6.2605E-06	1.924509E-05	1.793934E-05
-1.277919E-05	-3.588225E-06	-5.810196E-06	-2.415552E-05	-2.064104E-05	-6.883966E-06	9.747082E-07	-3.268381E-05	-2.263066E-07	4.869612E-06	-4.381733E-05	-1.557551E-05	1.183652E-05	6.2605E-06	1.924509E-05	1.793934E-05
-1.218224E-05	-4.850294E-06	-5.657871E-06	-2.059555E-05	-1.829512E-05	-6.482176E-06	2.873706E-06	-2.542815E-05	-9.782397E-07	2.811431E-06	-4.320371E-05	-1.658149E-05	1.144452E-05	4.398404E-06	1.966864E-05	1.739076E-05
-1.218224E-05	-4.850294E-06	-5.657871E-06	-2.059555E-05	-1.829512E-05	-6.482176E-06	2.873706E-06	-2.542815E-05	-9.782397E-07	2.811431E-06	-4.320371E-05	-1.658149E-05	1.144452E-05	4.398404E-06	1.966864E-05	1.739076E-05
-1.167936E-05	-5.025962E-06	-4.430945E-06	-1.634602E-05	-1.728049E-05	-5.567396E-06	2.473017E-06	-1.901539E-05	-1.480224E-06	2.979702E-06	-4.242134E-05	-1.808947E-05	1.066923E-05	3.959991E-06	2.110015E-05	1.703284E-05
-1.167936E-05	-5.025962E-06	-4.430945E-06	-1.634602E-05	-1.728049E-05	-5.567396E-06	2.473017E-06	-1.901539E-05	-1.480224E-06	2.979702E-06	-4.242134E-05	-1.808947E-05	1.066923E-05	3.959991E-06	2.110015E-05	1.703284E-05
-1.256583E-05	-4.021715E-06	-3.519284E-06	-1.163672E-05	-1.721374E-05	-4.760346E-06	6.473378E-07	-1.470028E-05	-2.418364E-06	3.618737E-06	-4.156338E-05	-1.839978E-05	1.035101E-05	4.766567E-06	2.083689E-05	1.693244E-05
-1.256583E-05	-4.021715E-06	-3.519284E-06	-1.163672E-05	-1.721374E-05	-4.760346E-06	6.473378E-07	-1.470028E-05	-2.418364E-06	3.618737E-06	-4.156338E-05	-1.839978E-05	1.035101E-05	4.766567E-06	2.083689E-05	1.693244E-05
-1.429551E-05	-3.306229E-06	-3.626991E-06	-7.302295E-06	-1.789861E-05	-4.205768E-06	-8.380265E-07	-1.487247E-05	-2.533184E-06	3.775383E-06	-4.126924E-05	-1.791844E-05	1.043681E-05	5.767827E-06	1.926509E-05	1.607821E-05
-1.429551E-05	-3.306229E-06	-3.626991E-06	-7.302295E-06	-1.789861E-05	-4.205768E-06	-8.380265E-07	-1.487247E-05	-2.533184E-06	3.775383E-06	-4.126924E-05	-1.791844E-05	1.043681E-05	5.767827E-06	1.926509E-05	1.607821E-05
-1.50734E-05	-2.522445E-06	-4.387289E-06	-4.104491E-06	-1.863253E-05	-3.902759E-06	-1.108894E-06	-1.695678E-05	-1.816935E-06	4.639191E-06	-3.915992E-05	-1.778244E-05	1.103401E-05	4.335353E-06	1.641248E-05	1.465731E-05
-1.50734E-05	-2.522445E-06	-4.387289E-06	-4.104491E-06	-1.863253E-05	-3.902759E-06	-1.108894E-06	-1.695678E-05	-1.816935E-06	4.639191E-06	-3.915992E-05	-1.778244E-05	1.103401E-05	4.335353E-06	1.641248E-05	1.465731E-05
-1.49985E-05	-1.898377E-06	-4.664608E-06	-2.03886E-06	-1.858364E-05	-3.241534E-06	-7.50475E-07	-1.700751E-05	-3.070218E-06	5.373221E-06	-3.737496E-05	-1.952871E-05	1.196896E-05	2.829424E-06	1.375636E-05	1.448382E-05
-1.49985E-05	-1.898377E-06	-4.664608E-06	-2.03886E-06	-1.858364E-05	-3.241534E-06	-7.50475E-07	-1.700751E-05	-3.070218E-06	5.373221E-06	-3.737496E-05	-1.952871E-05	1.196896E-05	2.829424E-06	1.375636E-05	1.448382E-05
-1.48533E-05	-2.283575E-06	-3.944735E-06	-7.003255E-07	-1.767966E-05	-2.559059E-06	-6.097622E-07	-1.513285E-05	-4.155406E-06	4.191349E-06	-3.753476E-05	-2.198812E-05	1.235397E-05	3.320307E-06	1.271913E-05	1.479638E-05
-1.48533E-05	-2.283575E-06	-3.944735E-06	-7.003255E-07	-1.767966E-05	-2.559059E-06	-6.097622E-07	-1.513285E-05	-4.155406E-06	4.191349E-06	-3.753476E-05	-2.198812E-05	1.235397E-05	3.320307E-06	1.271913E-05	1.479638E-05
-1.387413E-05	-2.838441E-06	-3.32123E-06	-2.981481E-07	-1.627308E-05	-3.890455E-06	-2.949462E-07	-1.33749E-05	-3.670717E-06	1.851849E-06	-3.810322E-05	-2.336882E-05	1.169002E-05	5.315677E-06	1.222608E-05	1.476752E-05
-1.387413E-05	-2.838441E-06	-3.32123E-06	-2.981481E-07	-1.627308E-05	-3.890455E-06	-2.949462E-07	-1.33749E-05	-3.670717E-06	1.851849E-06	-3.810322E-05	-2.336882E-05	1.169002E-05	5.315677E-06	1.222608E-05	1.476752E-05
-1.213413E-05	-2.854375E-06	-3.422826E-06	-1.95318E-06	-1.47514E-05	-6.845872E-06	3.41086E-07	-1.252407E-05	-1.586209E-06	8.426974E-07	-3.796188E-05	-2.334215E-05	1.02091E-05	6.351909E-06	1.122312E-05	1.33957E-05
-1.213413E-05	-2.854375E-06	-3.422826E-06	-1.95318E-06	-1.47514E-05	-6.845872E-06	3.41086E-07	-1.252407E-05	-1.586209E-06	8.426974E-07	-3.796188E-05	-2.334215E-05	1.02091E-05	6.351909E-06	1.122312E-05	1.33957E-05
-1.112985E-05	-2.911107E-06	-3.212609E-06	-6.048998E-06	-1.333356E-05	-8.476205E-06	4.996755E-07	-1.19573E-05	-5.348477E-07	1.315508E-06	-3.754916E-05	-2.328279E-05	9.54554E-06	4.94424E-06	9.608686E-06	1.12771E-05
-1.112985E-05	-2.911107E-06	-3.212609E-06	-6.048998E-06	-1.333356E-05	-8.476205E-06	4.996755E-07	-1.19573E-05	-5.348477E-07	1.315508E-06	-3.754916E-05	-2.328279E-05	9.54554E-06	4.94424E-06	9.608686E-06	1.12771E-05
-1.113007E-05	-3.294783E-06	-1.946328E-06	-1.084535E-05	-1.186956E-05	-8.29361E-06	1.383418E-07	-1.151999E-05	-6.258715E-07	2.447049E-06	-3.779818E-05	-2.400181E-05	1.019783E-05	3.23618E-06	8.114463E-06	1.024595E-05
-1.113007E-05	-3.294783E-06	-1.946328E-06	-1.084535E-05	-1.186956E-05	-8.29361E-06	1.383418E-07	-1.151999E-05	-6.258715E-07	2.447049E-06	-3.779818E-05	-2.400181E-05	1.019783E-05	3.23618E-06	8.114463E-06	1.024595E-05
-1.144191E-05	-3.568114E-06	-9.697429E-07	-1.405373E-05	-1.027186E-05	-7.938825E-06	-5.263613E-08	-1.169204E-05	-1.274267E-06	2.762878E-06	-3.691366E-05	-2.401909E-05	1.03066E-05	2.801965E-06	7.902077E-06	1.050916E-05
-1.144191E-05	-3.568114E-06	-9.697429E-07	-1.405373E-05	-1.027186E-05	-7.938825E-06	-5.263613E-08	-1.169204E-05	-1.274267E-06	2.762878E-06	-3.691366E-05	-2.401909E-05	1.03066E-05	2.801965E-06	7.902077E-06	1.050916E-05
-1.180144E-05	-3.434875E-06	-2.139692E-06	-1.490125E-05	-9.059769E-06	-7.841533E-06	2.355104E-07	-1.264624E-05	-7.926106E-07	2.080171E-06	-3.528863E-05	-2.346482E-05	9.259193E-06	3.661291E-06	8.696842E-06	1.039419E-05
-1.180144E-05	-3.434875E-06	-2.139692E-06	-1.490125E-05	-9.059769E-06	-7.841533E-06	2.355104E-07	-1.264624E-05	-7.926106E-07	2.080171E-06	-3.528863E-05	-2.346482E-05	9.259193E-06	3.661291E-06	8.696842E-06	1.039419E-05
-1.210369E-05	-3.341237E-06	-4.483047E-06	-1.416954E-05	-8.958898E-06	-7.059851E-06	7.501632E-07	-1.397079E-05	1.326712E-06	2.417717E-06	-3.452443E-05	-2.307855E-05	7.69666E-06	4.312737E-06	9.396796E-06	9.841337E-06
-1.210369E-05	-3.341237E-06	-4.483047E-06	-1.416954E-05	-8.958898E-06	-7.059851E-06	7.501632E-07	-1.397079E-05	1.326712E-06	2.417717E-06	-3.452443E-05	-2.307855E-05	7.69666E-06	4.312737E-06	9.396796E-06	9.841337E-06
-1.213989E-05	-3.606765E-06	-5.58822E-06	-1.285299E-05	-9.686527E-06	-5.483257E-06	8.10418E-07	-1.475477E-05	2.541305E-06	4.220664E-06	-3.494224E-05	-2.26079E-05	6.868167E-06	5.486966E-06	9.780746E-06	1.092423E-05
-1.213989E-05	-3.606765E-06	-5.58822E-06	-1.285299E-05	-9.686527E-06	-5.483257E-06	8.10418E-07	-1.475477E-05	2.541305E-06	4.220664E-06	-3.494224E-05	-2.26079E-05	6.868167E-06	5.486966E-06	9.780746E-06	1.092423E-05
-1.169153E-05	-3.653854E-06	-5.102028E-06	-1.106685E-05	-1.007065E-05	-4.637547E-06	-8.221497E-08	-1.428215E-05	2.402578E-06	6.000605E-06	-3.530738E-05	-2.101898E-05	8.373144E-06	6.483081E-06	9.852917E-06	1.272362E-05
-1.169153E-05	-3.653854E-06	-5.102028E-06	-1.106685E-05	-1.007065E-05	-4.637547E-06	-8.221497E-08	-1.428215E-05	2.402578E-06	6.000605E-06	-3.530738E-05	-2.101898E-05	8.373144E-06	6.483081E-06	9.852917E-06	1.272362E-05
-1.064108E-05	-3.235969E-06	-4.091838E-06	-8.876274E-06	-9.99132E-06	-5.19705E-06	-1.231914E-06	-1.280614E-05	2.641881E-06	6.480007E-06	-3.451055E-05	-2.104993E-05	1.077561E-05	7.0026E-06	9.790353E-06	1.335629E-05
-1.064108E-05	-3.235969E-06	-4.091838E-06	-8.876274E-06	-9.99132E-06	-5.19705E-06	-1.231914E-06	-1.280614E-05	2.641881E-06	6.480007E-06	-3.451055E-05	-2.104993E-05	1.077561E-05	7.0026E-06	9.790353E-06	1.335629E-05
-9.718872E-06	-2.873943E-06	-3.61142E-06	-7.100634E-06	-1.014778E-05	-6.045351E-06	-1.445237E-06	-1.168442E-05	3.424316E-06	6.067462E-06	-3.227136E-05	-2.225831E-05	1.150791E-05	6.406373E-06	1.017803E-05	1.371339E-05
-9.718872E-06	-2.873943E-06	-3.61142E-06	-7.100634E-06	-1.014778E-05	-6.045351E-06	-1.445237E-06	-1.168442E-05	3.424316E-06	6.067462E-06	-3.227136E-05	-2.225831E-05	1.150791E-05	6.406373E-06	1.017803E-05	1.371339E-05
-1.036609E-05	-2.787852E-06	-4.253377E-06	-6.327994E-06	-1.021541E-05	-6.205044E-06	-7.212785E-07	-1.215719E-05	2.097718E-06	5.520612E-06	-2.984006E-05	-2.31925E-05	9.890649E-06	5.670177E-06	1.122889E-05	1.430677E-05
-1.036609E-05	-2.787852E-06	-4.253377E-06	-6.327994E-06	-1.021541E-05	-6.205044E-06	-7.212785E-07	-1.215719E-05	2.097718E-06	5.520612E-06	-2.984006E-05	-2.31925E-05	9.890649E-06	5.670177E-06	1.122889E-05	1.430677E-05
-1.208155E-05	-2.711628E-06	-5.21753E-06	-6.230304E-06	-9.444253E-06	-5.955742E-06	7.86041E-08	-1.293952E-05	-9.489247E-07	5.24661E-06	-2.878248E-05	-2.287256E-05	9.195252E-06	6.310372E-06	1.15678E-05	1.443577E-05
-1.208155E-05	-2.711628E-06	-5.21753E-06	-6.230304E-06	-9.444253E-06	-5.955742E-06	7.86041E-08	-1.293952E-05	-9.489247E-07	5.24661E-06	-2.878248E-05	-2.287256E-05	9.195252E-06	6.310372E-06	1.15678E-05	1.443577E-05
-1.272202E-05	-2.519993E-06	-5.013709E-06	-6.030753E-06	-8.158388E-06	-6.309704E-06	8.479903E-08	-1.192931E-05	-1.975353E-06	5.685243E-06	-2.975399E-05	-2.138744E-05	9.215491E-06	6.916177E-06	1.124569E-05	1.361282E-05
-1.272202E-05	-2.519993E-06	-5.013709E-06	-6.030753E-06	-8.158388E-06	-6.309704E-06	8.479903E-08	-1.192931E-05	-1.975353E-06	5.685243E-06	-2.975399E-05	-2.138744E-05	9.215491E-06	6.916177E-06	1.124569E-05	1.361282E-05
-1.235946E-05	-2.530391E-06	-3.537101E-06	-5.063432E-06	-7.640194E-06	-7.641609E-06	-1.472581E-06	-1.055492E-05	-8.808323E-07	6.793344E-06	-3.142063E-05	-1.936674E-05	8.849618E-06	5.359812E-06	1.130837E-05	1.294045E-05
-1.235946E-05	-2.530391E-06	-3.537101E-06	-5.063432E-06	-7.640194E-06	-7.641609E-06	-1.472581E-06	-1.055492E-05	-8.808323E-07	6.793344E-06	-3.142063E-05	-1.936674E-05	8.849618E-06	5.359812E-06	1.130837E-05	1.294045E-05
-1.249757E-05	-2.827609E-06	-1.990701E-06	-2.602419E-06	-8.217083E-06	-8.994275E-06	-4.209491E-06	-1.051086E-05	4.46928E-07	7.174471E-06	-3.196452E-05	-1.912352E-05	8.19772E-06	4.182166E-06	1.17576E-05	1.323387E-05
-1.249757E-05	-2.827609E-06	-1.990701E-06	-2.602419E-06	-8.217083E-06	-8.994275E-06	-4.209491E-06	-1.051086E-05	4.46928E-07	7.174471E-06	-3.196452E-05	-1.912352E-05	8.19772E-06	4.182166E-06	1.17576E-05	1.323387E-05
-1.319225E-05	-2.943869E-06	-1.252138E-06	1.326704E-06	-8.651831E-06	-9.233603E-06	-6.475261E-06	-1.023023E-05	-6.754097E-08	5.696134E-06	-3.151714E-05	-1.976274E-05	7.00383E-06	5.454364E-06	1.080405E-05	1.328347E-05
-1.319225E-05	-2.943869E-06	-1.252138E-06	1.326704E-06	-8.651831E-06	-9.233603E-06	-6.475261E-06	-1.023023E-05	-6.754097E-08	5.696134E-06	-3.151714E-05	-1.976274E-05	7.00383E-06	5.454364E-06	1.080405E-05	1.328347E-05
-1.38058E-05	-2.826743E-06	-1.046079E-06	4.866278E-06	-8.656953E-06	-8.413712E-06	-6.947985E-06	-9.341662E-06	-2.57133E-07	4.542896E-06	-3.012905E-05	-1.810225E-05	6.487644E-06	7.048217E-06	8.084901E-06	1.438796E-05
-1.38058E-05	-2.826743E-06	-1.046079E-06	4.866278E-06	-8.656953E-06	-8.413712E-06	-6.947985E-06	-9.341662E-06	-2.57133E-07	4.542896E-06	-3.012905E-05	-1.810225E-05	6.487644E-06	7.048217E-06	8.084901E-06	1.438796E-05
-1.385601E-05	-3.154503E-06	-6.906345E-07	5.915426E-06	-8.975681E-06	-7.118154E-06	-5.44658E-06	-8.831475E-06	1.570123E-06	4.522931E-06	-2.997333E-05	-1.783378E-05	6.597843E-06	7.912751E-06	6.613305E-06	1.478537E-05
-1.385601E-05	-3.154503E-06	-6.906345E-07	5.915426E-06	-8.975681E-06	-7.118154E-06	-5.44658E-06	-8.831475E-06	1.570123E-06	4.522931E-06	-2.997333E-05	-1.783378E-05	6.597843E-06	7.912751E-06	6.613305E-06	1.478537E-05
-1.282324E-05	-4.417874E-06	-4.558965E-07	3.346561E-06	-9.118539E-06	-6.041692E-06	-3.431761E-06	-7.618684E-06	3.067136E-06	4.805072E-06	-2.983976E-05	-1.860224E-05	6.235188E-06	7.846637E-06	7.60388E-06	1.33864E-05
-1.282324E-05	-4.417874E-06	-4.558965E-07	3.346561E-06	-9.118539E-06	-6.041692E-06	-3.431761E-06	-7.618684E-06	3.067136E-06	4.805072E-06	-2.983976E-05	-1.860224E-05	6.235188E-06	7.846637E-06	7.60388E-06	1.33864E-05
-1.138028E-05	-5.864204E-06	-7.138249E-07	-9.052186E-07	-8.668691E-06	-5.986336E-06	-2.690264E-06	-5.222435E-06	1.666644E-06	4.130595E-06	-2.962414E-05	-1.86041E-05	4.300269E-06	7.4113E-06	8.540091E-06	1.158962E-05
-1.138028E-05	-5.864204E-06	-7.138249E-07	-9.052186E-07	-8.668691E-06	-5.986336E-06	-2.690264E-06	-5.222435E-06	1.666644E-06	4.130595E-06	-2.962414E-05	-1.86041E-05	4.300269E-06	7.4113E-06	8.540091E-06	1.158962E-05
-1.11193E-05	-6.291656E-06	-1.087431E-06	-2.559289E-06	-8.473474E-06	-6.54798E-06	-2.955347E-06	-3.141277E-06	1.46595E-06	3.498307E-06	-3.00246E-05	-1.792239E-05	2.599605E-06	6.152296E-06	8.75164E-06	1.02768E-05
-1.11193E-05	-6.291656E-06	-1.087431E-06	-2.559289E-06	-8.473474E-06	-6.54798E-06	-2.955347E-06	-3.141277E-06	1.46595E-06	3.498307E-06	-3.00246E-05	-1.792239E-05	2.599605E-06	6.152296E-06	8.75164E-06	1.02768E-05
-1.186221E-05	-6.029642E-06	-1.774928E-06	-2.437095E-06	-8.657093E-06	-6.909204E-06	-3.349289E-06	-2.090267E-06	1.602987E-06	3.361077E-06	-2.81433E-05	-1.845415E-05	4.255388E-06	4.428918E-06	8.029107E-06	1.009051E-05
-1.186221E-05	-6.029642E-06	-1.774928E-06	-2.437095E-06	-8.657093E-06	-6.909204E-06	-3.349289E-06	-2.090267E-06	1.602987E-06	3.361077E-06	-2.81433E-05	-1.845415E-05	4.255388E-06	4.428918E-06	8.029107E-06	1.009051E-05
-1.229494E-05	-6.247239E-06	-3.012704E-06	-4.493887E-06	-8.474381E-06	-7.334723E-06	-4.013156E-06	-1.515072E-06	-1.792418E-07	1.76749E-06	-2.562348E-05	-1.870752E-05	5.628923E-06	3.529268E-06	7.401597E-06	1.025892E-05
-1.229494E-05	-6.247239E-06	-3.012704E-06	-4.493887E-06	-8.474381E-06	-7.334723E-06	-4.013156E-06	-1.515072E-06	-1.792418E-07	1.76749E-06	-2.562348E-05	-1.870752E-05	5.628923E-06	3.529268E-06	7.401597E-06	1.025892E-05
-1.21215E-05	-7.207805E-06	-3.931348E-06	-8.263673E-06	-7.875555E-06	-8.35157E-06	-4.741773E-06	-9.538265E-07	-6.254513E-07	2.63026E-07	-2.543217E-05	-1.692801E-05	5.751593E-06	4.97239E-06	9.376455E-06	1.111187E-05
-1.21215E-05	-7.207805E-06	-3.931348E-06	-8.263673E-06	-7.875555E-06	-8.35157E-06	-4.741773E-06	-9.538265E-07	-6.254513E-07	2.63026E-07	-2.543217E-05	-1.692801E-05	5.751593E-06	4.97239E-06	9.376455E-06	1.111187E-05
-1.137182E-05	-8.401481E-06	-3.942243E-06	-1.147209E-05	-7.461972E-06	-1.016258E-05	-4.65088E-06	-8.546503E-07	-9.290329E-07	2.185064E-07	-2.773954E-05	-1.580552E-05	5.816617E-06	6.682759E-06	1.089263E-05	1.2812E-05
-1.137182E-05	-8.401481E-06	-3.942243E-06	-1.147209E-05	-7.461972E-06	-1.016258E-05	-4.65088E-06	-8.546503E-07	-9.290329E-07	2.185064E-07	-2.773954E-05	-1.580552E-05	5.816617E-06	6.682759E-06	1.089263E-05	1.2812E-05
-1.034107E-05	-9.117658E-06	-3.391613E-06	-1.371871E-05	-7.453968E-06	-1.214401E-05	-3.810942E-06	-1.803538E-06	-5.779364E-07	8.321407E-07	-2.972589E-05	-1.536696E-05	5.870998E-06	7.605436E-06	1.086023E-05	1.561284E-05
-1.034107E-05	-9.117658E-06	-3.391613E-06	-1.371871E-05	-7.453968E-06	-1.214401E-05	-3.810942E-06	-1.803538E-06	-5.779364E-07	8.321407E-07	-2.972589E-05	-1.536696E-05	5.870998E-06	7.605436E-06	1.086023E-05	1.561284E-05
-1.004243E-05	-9.003917E-06	-2.726725E-06	-1.546409E-05	-7.426576E-06	-1.27978E-05	-3.426871E-06	-3.717105E-06	-2.17914E-09	1.353797E-06	-2.980398E-05	-1.57875E-05	5.881704E-06	8.273209E-06	1.047045E-05	1.641074E-05
-1.004243E-05	-9.003917E-06	-2.726725E-06	-1.546409E-05	-7.426576E-06	-1.27978E-05	-3.426871E-06	-3.717105E-06	-2.17914E-09	1.353797E-06	-2.980398E-05	-1.57875E-05	5.881704E-06	8.273209E-06	1.047045E-05	1.641074E-05
-1.064009E-05	-8.730769E-06	-2.306519E-06	-1.66014E-05	-7.312798E-06	-1.193418E-05	-3.619311E-06	-6.7796E-06	1.575611E-06	1.788665E-06	-2.991997E-05	-1.631252E-05	6.205238E-06	7.872359E-06	1.032249E-05	1.526372E-05
-1.064009E-05	-8.730769E-06	-2.306519E-06	-1.66014E-05	-7.312798E-06	-1.193418E-05	-3.619311E-06	-6.7796E-06	1.575611E-06	1.788665E-06	-2.991997E-05	-1.631252E-05	6.205238E-06	7.872359E-06	1.032249E-05	1.526372E-05
-1.115422E-05	-8.87727E-06	-2.379312E-06	-1.63278E-05	-7.49178E-06	-1.113266E-05	-3.437704E-06	-1.051154E-05	2.510242E-06	2.150333E-06	-3.017777E-05	-1.717018E-05	6.567434E-06	6.172625E-06	1.040169E-05	1.440667E-05
-1.115422E-05	-8.87727E-06	-2.379312E-06	-1.63278E-05	-7.49178E-06	-1.113266E-05	-3.437704E-06	-1.051154E-05	2.510242E-06	2.150333E-06	-3.017777E-05	-1.717018E-05	6.567434E-06	6.172625E-06	1.040169E-05	1.440667E-05
-1.109886E-05	-8.484205E-06	-2.838952E-06	-1.428449E-05	-7.847474E-06	-1.127162E-05	-3.021192E-06	-1.229249E-05	1.772506E-06	2.231277E-06	-3.04015E-05	-1.695399E-05	6.078115E-06	4.210411E-06	1.071551E-05	1.580074E-05
-1.109886E-05	-8.484205E-06	-2.838952E-06	-1.428449E-05	-7.847474E-06	-1.127162E-05	-3.021192E-06	-1.229249E-05	1.772506E-06	2.231277E-06	-3.04015E-05	-1.695399E-05	6.078115E-06	4.210411E-06	1.071551E-05	1.580074E-05
-1.072609E-05	-6.869193E-06	-3.339236E-06	-1.123105E-05	-8.255097E-06	-1.148346E-05	-3.065349E-06	-1.025036E-05	4.426134E-07	1.292355E-06	-3.064326E-05	-1.594982E-05	5.151682E-06	3.070669E-06	1.064449E-05	1.700114E-05
-1.072609E-05	-6.869193E-06	-3.339236E-06	-1.123105E-05	-8.255097E-06	-1.148346E-05	-3.065349E-06	-1.025036E-05	4.426134E-07	1.292355E-06	-3.064326E-05	-1.594982E-05	5.151682E-06	3.070669E-06	1.064449E-05	1.700114E-05
-1.024323E-05	-4.99715E-06	-3.443054E-06	-8.57073E-06	-8.860757E-06	-1.042767E-05	-3.493342E-06	-4.538927E-06	-2.388539E-07	1.060317E-08	-3.10493E-05	-1.425426E-05	4.393693E-06	3.476029E-06	1.010726E-05	1.598962E-05
-1.024323E-05	-4.99715E-06	-3.443054E-06	-8.57073E-06	-8.860757E-06	-1.042767E-05	-3.493342E-06	-4.538927E-06	-2.388539E-07	1.060317E-08	-3.10493E-05	-1.425426E-05	4.393693E-06	3.476029E-06	1.010726E-05	1.598962E-05
-9.574277E-06	-3.742572E-06	-2.731441E-06	-7.384356E-06	-9.171643E-06	-8.031725E-06	-3.833389E-06	4.725083E-06	-7.276663E-07	-9.323012E-07	-3.164378E-05	-1.258691E-05	4.450576E-06	4.621983E-06	1.05048E-05	1.463079E-05
-9.574277E-06	-3.742572E-06	-2.731441E-06	-7.384356E-06	-9.171643E-06	-8.031725E-06	-3.833389E-06	4.725083E-06	-7.276663E-07	-9.323012E-07	-3.164378E-05	-1.258691E-05	4.450576E-06	4.621983E-06	1.05048E-05	1.463079E-05
-8.69243E-06	-3.174189E-06	-1.715904E-06	-7.585686E-06	-8.595511E-06	-5.610347E-06	-3.827129E-06	1.479305E-05	-1.702821E-06	-9.751498E-07	-3.308578E-05	-1.247916E-05	5.142631E-06	4.344437E-06	1.171533E-05	1.349646E-05
-8.69243E-06	-3.174189E-06	-1.715904E-06	-7.585686E-06	-8.595511E-06	-5.610347E-06	-3.827129E-06	1.479305E-05	-1.702821E-06	-9.751498E-07	-3.308578E-05	-1.247916E-05	5.142631E-06	4.344437E-06	1.171533E-05	1.349646E-05
-7.983729E-06	-3.026622E-06	-1.705494E-06	-8.027635E-06	-7.658371E-06	-4.254907E-06	-3.670174E-06	1.906703E-05	-1.684342E-06	-2.320897E-07	-3.436362E-05	-1.466788E-05	5.581603E-06	3.069688E-06	1.176769E-05	1.285753E-05
-7.983729E-06	-3.026622E-06	-1.705494E-06	-8.027635E-06	-7.658371E-06	-4.254907E-06	-3.670174E-06	1.906703E-05	-1.684342E-06	-2.320897E-07	-3.436362E-05	-1.466788E-05	5.581603E-06	3.069688E-06	1.176769E-05	1.285753E-05
-8.018748E-06	-2.701613E-06	-2.541295E-06	-7.861577E-06	-7.679698E-06	-3.760318E-06	-3.761312E-06	1.378823E-05	-1.937605E-07	5.423789E-07	-3.501816E-05	-1.598754E-05	4.671648E-06	2.405985E-06	1.034335E-05	1.323439E-05
-8.018748E-06	-2.701613E-06	-2.541295E-06	-7.861577E-06	-7.679698E-06	-3.760318E-06	-3.761312E-06	1.378823E-05	-1.937605E-07	5.423789E-07	-3.501816E-05	-1.598754E-05	4.671648E-06	2.405985E-06	1.034335E-05	1.323439E-05
-8.649434E-06	-1.911326E-06	-2.783708E-06	-7.05803E-06	-9.383114E-06	-3.386656E-06	-3.880011E-06	1.233899E-06	1.169081E-06	6.369331E-07	-3.513725E-05	-1.475516E-05	3.654409E-06	2.303004E-06	1.003267E-05	1.322788E-05
-8.649434E-06	-1.911326E-06	-2.783708E-06	-7.05803E-06	-9.383114E-06	-3.386656E-06	-3.880011E-06	1.233899E-06	1.169081E-06	6.369331E-07	-3.513725E-05	-1.475516E-05	3.654409E-06	2.303004E-06	1.003267E-05	1.322788E-05
-8.846444E-06	-1.256582E-06	-2.136841E-06	-6.084715E-06	-1.200841E-05	-3.153372E-06	-3.185982E-06	-1.371685E-05	1.048014E-06	-1.766139E-07	-3.528439E-05	-1.417247E-05	3.295488E-06	2.642854E-06	1.053763E-05	1.09596E-05
-8.846444E-06	-1.256582E-06	-2.136841E-06	-6.084715E-06	-1.200841E-05	-3.153372E-06	-3.185982E-06	-1.371685E-05	1.048014E-06	-1.766139E-07	-3.528439E-05	-1.417247E-05	3.295488E-06	2.642854E-06	1.053763E-05	1.09596E-05
-8.522809E-06	-1.3425E-06	-1.243742E-06	-6.592415E-06	-1.409324E-05	-3.517492E-06	-1.977985E-06	-2.562037E-05	6.440275E-07	-4.659253E-07	-3.656752E-05	-1.522849E-05	4.913166E-06	3.815193E-06	1.055521E-05	8.139787E-06
-8.522809E-06	-1.3425E-06	-1.243742E-06	-6.592415E-06	-1.409324E-05	-3.517492E-06	-1.977985E-06	-2.562037E-05	6.440275E-07	-4.659253E-07	-3.656752E-05	-1.522849E-05	4.913166E-06	3.815193E-06	1.055521E-05	8.139787E-06
-8.856633E-06	-1.858798E-06	-6.116574E-07	-9.858423E-06	-1.48561E-05	-4.387623E-06	-1.879464E-06	-3.14322E-05	8.400576E-07	-1.043613E-07	-3.763071E-05	-1.757524E-05	6.677679E-06	5.669304E-06	1.030386E-05	8.246117E-06
-8.856633E-06	-1.858798E-06	-6.116574E-07	-9.858423E-06	-1.48561E-05	-4.387623E-06	-1.879464E-06	-3.14322E-05	8.400576E-07	-1.043613E-07	-3.763071E-05	-1.757524E-05	6.677679E-06	5.669304E-06	1.030386E-05	8.246117E-06
-1.003515E-05	-2.017406E-06	-6.738728E-07	-1.387009E-05	-1.464277E-05	-5.100199E-06	-3.400945E-06	-3.375068E-05	5.8316E-07	5.8169E-07	-3.725086E-05	-1.814233E-05	7.295549E-06	7.848101E-06	1.080141E-05	1.22898E-05
-1.003515E-05	-2.017406E-06	-6.738728E-07	-1.387009E-05	-1.464277E-05	-5.100199E-06	-3.400945E-06	-3.375068E-05	5.8316E-07	5.8169E-07	-3.725086E-05	-1.814233E-05	7.295549E-06	7.848101E-06	1.080141E-05	1.22898E-05
-1.092905E-05	-1.978906E-06	-1.386134E-06	-1.625927E-05	-1.439913E-05	-5.307988E-06	-4.985379E-06	-3.540036E-05	-2.139936E-07	1.795348E-06	-3.604871E-05	-1.635857E-05	7.598455E-06	8.509396E-06	1.186825E-05	1.407906E-05
-1.092905E-05	-1.978906E-06	-1.386134E-06	-1.625927E-05	-1.439913E-05	-5.307988E-06	-4.985379E-06	-3.540036E-05	-2.139936E-07	1.795348E-06	-3.604871E-05	-1.635857E-05	7.598455E-06	8.509396E-06	1.186825E-05	1.407906E-05
-1.080907E-05	-2.725287E-06	-2.099682E-06	-1.759439E-05	-1.465487E-05	-5.404928E-06	-4.997652E-06	-3.50749E-05	-1.285403E-07	2.827535E-06	-3.690218E-05	-1.43397E-05	7.207695E-06	7.667419E-06	1.258374E-05	1.30265E-05
-1.080907E-05	-2.725287E-06	-2.099682E-06	-1.759439E-05	-1.465487E-05	-5.404928E-06	-4.997652E-06	-3.50749E-05	-1.285403E-07	2.827535E-06	-3.690218E-05	-1.43397E-05	7.207695E-06	7.667419E-06	1.258374E-05	1.30265E-05
-1.066814E-05	-3.766746E-06	-2.945355E-06	-1.833226E-05	-1.520446E-05	-6.088325E-06	-4.00813E-06	-3.20476E-05	8.647294E-08	2.586861E-06	-3.783123E-05	-1.535753E-05	6.933683E-06	6.595727E-06	1.259265E-05	1.197513E-05
-1.066814E-05	-3.766746E-06	-2.945355E-06	-1.833226E-05	-1.520446E-05	-6.088325E-06	-4.00813E-06	-3.20476E-05	8.647294E-08	2.586861E-06	-3.783123E-05	-1.535753E-05	6.933683E-06	6.595727E-06	1.259265E-05	1.197513E-05
-1.178509E-05	-3.885948E-06	-4.548825E-06	-1.744272E-05	-1.591712E-05	-7.773172E-06	-3.407858E-06	-2.717917E-05	7.886467E-07	3.013663E-06	-3.743671E-05	-1.664972E-05	7.672362E-06	7.331941E-06	1.203238E-05	1.117724E-05
-1.178509E-05	-3.885948E-06	-4.548825E-06	-1.744272E-05	-1.591712E-05	-7.773172E-06	-3.407858E-06	-2.717917E-05	7.886467E-07	3.013663E-06	-3.743671E-05	-1.664972E-05	7.672362E-06	7.331941E-06	1.203238E-05	1.117724E-05
-1.285689E-05	-3.506814E-06	-5.541538E-06	-1.491848E-05	-1.677467E-05	-9.284069E-06	-3.225627E-06	-2.217577E-05	3.277302E-07	3.842856E-06	-3.610528E-05	-1.589306E-05	8.827607E-06	8.502445E-06	1.07812E-05	9.030569E-06
-1.285689E-05	-3.506814E-06	-5.541538E-06	-1.491848E-05	-1.677467E-05	-9.284069E-06	-3.225627E-06	-2.217577E-05	3.277302E-07	3.842856E-06	-3.610528E-05	-1.589306E-05	8.827607E-06	8.502445E-06	1.07812E-05	9.030569E-06
-1.244015E-05	-3.403755E-06	-4.828881E-06	-1.261716E-05	-1.736501E-05	-9.301094E-06	-3.25553E-06	-1.904287E-05	-1.75402E-07	3.829268E-06	-3.545108E-05	-1.611935E-05	8.631359E-06	8.53563E-06	9.220825E-06	7.836122E-06
-1.244015E-05	-3.403755E-06	-4.828881E-06	-1.261716E-05	-1.736501E-05	-9.301094E-06	-3.25553E-06	-1.904287E-05	-1.75402E-07	3.829268E-06	-3.545108E-05	-1.611935E-05	8.631359E-06	8.53563E-06	9.220825E-06	7.836122E-06
-1.189102E-05	-3.481528E-06	-4.348188E-06	-1.199785E-05	-1.747815E-05	-8.671104E-06	-3.434207E-06	-1.645425E-05	-1.224034E-06	3.883834E-06	-3.558811E-05	-1.63675E-05	8.408427E-06	7.602445E-06	7.583293E-06	8.494963E-06
-1.189102E-05	-3.481528E-06	-4.348188E-06	-1.199785E-05	-1.747815E-05	-8.671104E-06	-3.434207E-06	-1.645425E-05	-1.224034E-06	3.883834E-06	-3.558811E-05	-1.63675E-05	8.408427E-06	7.602445E-06	7.583293E-06	8.494963E-06
-1.215059E-05	-3.522802E-06	-4.944181E-06	-1.189006E-05	-1.719408E-05	-7.781021E-06	-3.284853E-06	-1.365148E-05	-1.959178E-06	3.61009E-06	-3.506723E-05	-1.737531E-05	8.058485E-06	6.387533E-06	8.556433E-06	9.338563E-06
-1.215059E-05	-3.522802E-06	-4.944181E-06	-1.189006E-05	-1.719408E-05	-7.781021E-06	-3.284853E-06	-1.365148E-05	-1.959178E-06	3.61009E-06	-3.506723E-05	-1.737531E-05	8.058485E-06	6.387533E-06	8.556433E-06	9.338563E-06
-1.230418E-05	-3.375822E-06	-5.240835E-06	-1.042601E-05	-1.656866E-05	-6.144218E-06	-2.691994E-06	-1.296263E-05	-2.167812E-06	3.622708E-06	-3.447631E-05	-1.982327E-05	7.27402E-06	6.689847E-06	1.144429E-05	9.517657E-06
-1.230418E-05	-3.375822E-06	-5.240835E-06	-1.042601E-05	-1.656866E-05	-6.144218E-06	-2.691994E-06	-1.296263E-05	-2.167812E-06	3.622708E-06	-3.447631E-05	-1.982327E-05	7.27402E-06	6.689847E-06	1.144429E-05	9.517657E-06
-1.203242E-05	-3.09006E-06	-5.080784E-06	-7.638168E-06	-1.601675E-05	-4.737157E-06	-1.962811E-06	-1.414328E-05	-3.19547E-06	3.824109E-06	-3.428075E-05	-1.952093E-05	6.730057E-06	8.174774E-06	1.184853E-05	9.104704E-06
-1.203242E-05	-3.09006E-06	-5.080784E-06	-7.638168E-06	-1.601675E-05	-4.737157E-06	-1.962811E-06	-1.414328E-05	-3.19547E-06	3.824109E-06	-3.428075E-05	-1.952093E-05	6.730057E-06	8.174774E-06	1.184853E-05	9.104704E-06
-1.203318E-05	-3.091053E-06	-5.081171E-06	-4.98585E-06	-1.603244E-05	-4.183751E-06	-1.383633E-06	-1.455759E-05	-3.18101E-06	3.441793E-06	-3.509344E-05	-1.817843E-05	6.111172E-06	9.795424E-06	9.709177E-06	9.939937E-06
-1.203318E-05	-3.091053E-06	-5.081171E-06	-4.98585E-06	-1.603244E-05	-4.183751E-06	-1.383633E-06	-1.455759E-05	-3.18101E-06	3.441793E-06	-3.509344E-05	-1.817843E-05	6.111172E-06	9.795424E-06	9.709177E-06	9.939937E-06
-1.238673E-05	-3.462485E-06	-5.150961E-06	-3.921878E-06	-1.667672E-05	-3.948367E-06	-1.074812E-06	-1.329975E-05	-2.858104E-06	2.408802E-06	-3.471388E-05	-1.790518E-05	6.641214E-06	9.457513E-06	8.666121E-06	1.096806E-05
-1.238673E-05	-3.462485E-06	-5.150961E-06	-3.921878E-06	-1.667672E-05	-3.948367E-06	-1.074812E-06	-1.329975E-05	-2.858104E-06	2.408802E-06	-3.471388E-05	-1.790518E-05	6.641214E-06	9.457513E-06	8.666121E-06	1.096806E-05
-1.239283E-05	-3.681604E-06	-4.989558E-06	-4.620852E-06	-1.770704E-05	-4.038881E-06	-7.510607E-07	-1.130736E-05	-9.194416E-07	1.992345E-06	-3.351418E-05	-1.740817E-05	7.800244E-06	8.499856E-06	9.881835E-06	1.183202E-05
-1.239283E-05	-3.681604E-06	-4.989558E-06	-4.620852E-06	-1.770704E-05	-4.038881E-06	-7.510607E-07	-1.130736E-05	-9.194416E-07	1.992345E-06	-3.351418E-05	-1.740817E-05	7.800244E-06	8.499856E-06	9.881835E-06	1.183202E-05
-1.262415E-05	-3.741177E-06	-4.605935E-06	-5.562852E-06	-1.866525E-05	-4.580446E-06	-6.884814E-09	-9.291027E-06	4.412734E-07	2.560761E-06	-3.269319E-05	-1.693746E-05	8.21881E-06	8.239883E-06	1.071758E-05	1.16183E-05
-1.262415E-05	-3.741177E-06	-4.605935E-06	-5.562852E-06	-1.866525E-05	-4.580446E-06	-6.884814E-09	-9.291027E-06	4.412734E-07	2.560761E-06	-3.269319E-05	-1.693746E-05	8.21881E-06	8.239883E-06	1.071758E-05	1.16183E-05
-1.39842E-05	-4.021269E-06	-4.11333E-06	-5.656931E-06	-1.892773E-05	-5.315611E-06	7.883015E-07	-6.79804E-06	-4.721946E-07	3.467859E-06	-3.323004E-05	-1.696424E-05	8.225618E-06	7.651422E-06	1.157375E-05	1.10378E-05
-1.39842E-05	-4.021269E-06	-4.11333E-06	-5.656931E-06	-1.892773E-05	-5.315611E-06	7.883015E-07	-6.79804E-06	-4.721946E-07	3.467859E-06	-3.323004E-05	-1.696424E-05	8.225618E-06	7.651422E-06	1.157375E-05	1.10378E-05
-1.504635E-05	-4.133131E-06	-3.455056E-06	-6.136396E-06	-1.817335E-05	-6.205413E-06	4.848795E-07	-3.200884E-06	-1.499053E-06	4.072642E-06	-3.373448E-05	-1.754049E-05	8.22741E-06	6.538491E-06	1.313217E-05	1.100573E-05
-1.504635E-05	-4.133131E-06	-3.455056E-06	-6.136396E-06	-1.817335E-05	-6.205413E-06	4.848795E-07	-3.200884E-06	-1.499053E-06	4.072642E-06	-3.373448E-05	-1.754049E-05	8.22741E-06	6.538491E-06	1.313217E-05	1.100573E-05
-1.460624E-05	-3.862314E-06	-2.884861E-06	-7.709857E-06	-1.699084E-05	-6.842831E-06	-1.108752E-06	3.365548E-07	-7.644929E-07	3.496649E-06	-3.317769E-05	-1.815344E-05	7.804134E-06	6.562517E-06	1.440338E-05	1.268694E-05
-1.460624E-05	-3.862314E-06	-2.884861E-06	-7.709857E-06	-1.699084E-05	-6.842831E-06	-1.108752E-06	3.365548E-07	-7.644929E-07	3.496649E-06	-3.317769E-05	-1.815344E-05	7.804134E-06	6.562517E-06	1.440338E-05	1.268694E-05
-1.371965E-05	-3.817475E-06	-2.859226E-06	-8.967871E-06	-1.625427E-05	-6.529677E-06	-2.643992E-06	1.002699E-06	1.02408E-06	3.11235E-06	-3.204885E-05	-1.809954E-05	6.986338E-06	7.339062E-06	1.562317E-05	1.436021E-05
-1.371965E-05	-3.817475E-06	-2.859226E-06	-8.967871E-06	-1.625427E-05	-6.529677E-06	-2.643992E-06	1.002699E-06	1.02408E-06	3.11235E-06	-3.204885E-05	-1.809954E-05	6.986338E-06	7.339062E-06	1.562317E-05	1.436021E-05
-1.308328E-05	-4.120885E-06	-3.091261E-06	-9.438797E-06	-1.581793E-05	-5.774797E-06	-3.021469E-06	-2.299565E-06	2.376906E-06	3.338619E-06	-3.113925E-05	-1.885787E-05	6.832339E-06	6.321468E-06	1.832797E-05	1.4793E-05
-1.308328E-05	-4.120885E-06	-3.091261E-06	-9.438797E-06	-1.581793E-05	-5.774797E-06	-3.021469E-06	-2.299565E-06	2.376906E-06	3.338619E-06	-3.113925E-05	-1.885787E-05	6.832339E-06	6.321468E-06	1.832797E-05	1.4793E-05
-1.254302E-05	-4.273624E-06	-3.146201E-06	-9.388398E-06	-1.525825E-05	-5.584463E-06	-2.473721E-06	-7.300867E-06	2.972405E-06	3.535412E-06	-3.044196E-05	-2.014959E-05	7.841521E-06	4.812227E-06	2.016231E-05	1.56138E-05
-1.254302E-05	-4.273624E-06	-3.146201E-06	-9.388398E-06	-1.525825E-05	-5.584463E-06	-2.473721E-06	-7.300867E-06	2.972405E-06	3.535412E-06	-3.044196E-05	-2.014959E-05	7.841521E-06	4.812227E-06	2.016231E-05	1.56138E-05
-1.229442E-05	-4.12087E-06	-3.436379E-06	-8.436208E-06	-1.512186E-05	-5.83671E-06	-2.049126E-06	-1.099691E-05	2.969E-06	3.643263E-06	-2.951833E-05	-2.054764E-05	8.461407E-06	5.077119E-06	1.890339E-05	1.724961E-05
-1.229442E-05	-4.12087E-06	-3.436379E-06	-8.436208E-06	-1.512186E-05	-5.83671E-06	-2.049126E-06	-1.099691E-05	2.969E-06	3.643263E-06	-2.951833E-05	-2.054764E-05	8.461407E-06	5.077119E-06	1.890339E-05	1.724961E-05
-1.239157E-05	-4.079184E-06	-4.393828E-06	-7.795134E-06	-1.610083E-05	-5.882893E-06	-2.473819E-06	-1.291708E-05	2.326666E-06	5.018695E-06	-2.895375E-05	-1.999347E-05	7.078444E-06	6.459285E-06	1.679366E-05	1.888481E-05
-1.239157E-05	-4.079184E-06	-4.393828E-06	-7.795134E-06	-1.610083E-05	-5.882893E-06	-2.473819E-06	-1.291708E-05	2.326666E-06	5.018695E-06	-2.895375E-05	-1.999347E-05	7.078444E-06	6.459285E-06	1.679366E-05	1.888481E-05
-1.282895E-05	-4.318674E-06	-5.355021E-06	-8.913679E-06	-1.750645E-05	-5.735139E-06	-3.142019E-06	-1.469277E-05	1.371114E-06	6.212594E-06	-2.856156E-05	-1.880757E-05	5.476322E-06	6.471331E-06	1.687231E-05	1.950159E-05
-1.282895E-05	-4.318674E-06	-5.355021E-06	-8.913679E-06	-1.750645E-05	-5.735139E-06	-3.142019E-06	-1.469277E-05	1.371114E-06	6.212594E-06	-2.856156E-05	-1.880757E-05	5.476322E-06	6.471331E-06	1.687231E-05	1.950159E-05
-1.385589E-05	-4.22085E-06	-5.114103E-06	-1.014171E-05	-1.756883E-05	-6.127274E-06	-2.713705E-06	-1.732137E-05	8.193096E-07	5.291668E-06	-2.8767E-05	-1.846326E-05	6.379415E-06	5.926587E-06	1.903092E-05	1.850693E-05
-1.385589E-05	-4.22085E-06	-5.114103E-06	-1.014171E-05	-1.756883E-05	-6.127274E-06	-2.713705E-06	-1.732137E-05	8.193096E-07	5.291668E-06	-2.8767E-05	-1.846326E-05	6.379415E-06	5.926587E-06	1.903092E-05	1.850693E-05
-1.48016E-05	-3.817674E-06	-4.039671E-06	-9.864438E-06	-1.63635E-05	-7.46284E-06	-1.471185E-06	-1.99849E-05	3.874319E-07	3.351727E-06	-2.905714E-05	-2.045064E-05	7.798798E-06	6.430209E-06	2.10743E-05	1.728764E-05
-1.48016E-05	-3.817674E-06	-4.039671E-06	-9.864438E-06	-1.63635E-05	-7.46284E-06	-1.471185E-06	-1.99849E-05	3.874319E-07	3.351727E-06	-2.905714E-05	-2.045064E-05	7.798798E-06	6.430209E-06	2.10743E-05	1.728764E-05
-1.46311E-05	-3.826697E-06	-3.694532E-06	-9.333166E-06	-1.581549E-05	-8.921565E-06	-9.583775E-07	-2.087369E-05	-9.507178E-08	3.006285E-06	-2.933194E-05	-2.175079E-05	8.375064E-06	7.53105E-06	2.055067E-05	1.720676E-05
-1.46311E-05	-3.826697E-06	-3.694532E-06	-9.333166E-06	-1.581549E-05	-8.921565E-06	-9.583775E-07	-2.087369E-05	-9.507178E-08	3.006285E-06	-2.933194E-05	-2.175079E-05	8.375064E-06	7.53105E-06	2.055067E-05	1.720676E-05
-1.407955E-05	-3.663998E-06	-3.976611E-06	-1.003083E-05	-1.606434E-05	-9.143767E-06	-9.726174E-07	-1.918386E-05	-1.342123E-07	3.088403E-06	-2.913307E-05	-2.054064E-05	8.447372E-06	7.281009E-06	1.845788E-05	1.671438E-05
-1.407955E-05	-3.663998E-06	-3.976611E-06	-1.003083E-05	-1.606434E-05	-9.143767E-06	-9.726174E-07	-1.918386E-05	-1.342123E-07	3.088403E-06	-2.913307E-05	-2.054064E-05	8.447372E-06	7.281009E-06	1.845788E-05	1.671438E-05
-1.406794E-05	-2.780623E-06	-4.10483E-06	-1.151323E-05	-1.632777E-05	-8.16492E-06	-8.340591E-07	-1.616912E-05	7.969109E-07	3.539369E-06	-2.966146E-05	-1.917813E-05	7.296278E-06	6.171751E-06	1.769951E-05	1.688192E-05
-1.406794E-05	-2.780623E-06	-4.10483E-06	-1.151323E-05	-1.632777E-05	-8.16492E-06	-8.340591E-07	-1.616912E-05	7.969109E-07	3.539369E-06	-2.966146E-05	-1.917813E-05	7.296278E-06	6.171751E-06	1.769951E-05	1.688192E-05
-1.392321E-05	-2.172958E-06	-4.47E-06	-1.230488E-05	-1.700892E-05	-7.507531E-06	-1.261232E-06	-1.376164E-05	1.188038E-06	4.912221E-06	-3.052682E-05	-1.972231E-05	6.214802E-06	5.928303E-06	1.818416E-05	1.732243E-05
-1.392321E-05	-2.172958E-06	-4.47E-06	-1.230488E-05	-1.700892E-05	-7.507531E-06	-1.261232E-06	-1.376164E-05	1.188038E-06	4.912221E-06	-3.052682E-05	-1.972231E-05	6.214802E-06	5.928303E-06	1.818416E-05	1.732243E-05
-1.351891E-05	-2.072111E-06	-5.089916E-06	-1.150532E-05	-1.782817E-05	-7.648499E-06	-2.503889E-06	-1.259805E-05	-2.725374E-07	5.120676E-06	-3.128783E-05	-2.104843E-05	6.780158E-06	5.258218E-06	1.925073E-05	1.711881E-05
-1.351891E-05	-2.072111E-06	-5.089916E-06	-1.150532E-05	-1.782817E-05	-7.648499E-06	-2.503889E-06	-1.259805E-05	-2.725374E-07	5.120676E-06	-3.128783E-05	-2.104843E-05	6.780158E-06	5.258218E-06	1.925073E-05	1.711881E-05
-1.356308E-05	-1.773346E-06	-5.507659E-06	-9.19576E-06	-1.791884E-05	-7.834677E-06	-4.521464E-06	-1.19429E-05	-2.080828E-06	3.610172E-06	-3.036397E-05	-2.03737E-05	8.351301E-06	5.153374E-06	2.128378E-05	1.670474E-05
-1.356308E-05	-1.773346E-06	-5.507659E-06	-9.19576E-06	-1.791884E-05	-7.834677E-06	-4.521464E-06	-1.19429E-05	-2.080828E-06	3.610172E-06	-3.036397E-05	-2.03737E-05	8.351301E-06	5.153374E-06	2.128378E-05	1.670474E-05
-1.378564E-05	-1.68644E-06	-5.73444E-06	-7.248685E-06	-1.759215E-05	-7.883821E-06	-7.101547E-06	-1.127678E-05	-2.740761E-06	2.379878E-06	-2.929564E-05	-2.134062E-05	8.409553E-06	5.780229E-06	2.161123E-05	1.656377E-05
-1.378564E-05	-1.68644E-06	-5.73444E-06	-7.248685E-06	-1.759215E-05	-7.883821E-06	-7.101547E-06	-1.127678E-05	-2.740761E-06	2.379878E-06	-2.929564E-05	-2.134062E-05	8.409553E-06	5.780229E-06	2.161123E-05	1.656377E-05
-1.350758E-05	-1.977576E-06	-5.587297E-06	-7.384776E-06	-1.760096E-05	-8.163969E-06	-8.582978E-06	-1.075058E-05	-3.917798E-06	2.165202E-06	-2.833523E-05	-2.13103E-05	7.201068E-06	5.264978E-06	2.058586E-05	1.665942E-05
-1.350758E-05	-1.977576E-06	-5.587297E-06	-7.384776E-06	-1.760096E-05	-8.163969E-06	-8.582978E-06	-1.075058E-05	-3.917798E-06	2.165202E-06	-2.833523E-05	-2.13103E-05	7.201068E-06	5.264978E-06	2.058586E-05	1.665942E-05
-1.299945E-05	-1.657498E-06	-5.246893E-06	-8.010189E-06	-1.794857E-05	-8.723759E-06	-8.134398E-06	-1.031184E-05	-4.287259E-06	1.1709E-06	-2.726868E-05	-1.979727E-05	6.436214E-06	3.835624E-06	1.978495E-05	1.609503E-05
-1.299945E-05	-1.657498E-06	-5.246893E-06	-8.010189E-06	-1.794857E-05	-8.723759E-06	-8.134398E-06	-1.031184E-05	-4.287259E-06	1.1709E-06	-2.726868E-05	-1.979727E-05	6.436214E-06	3.835624E-06	1.978495E-05	1.609503E-05
-1.3239E-05	-7.801822E-07	-5.73423E-06	-7.735091E-06	-1.789318E-05	-8.810541E-06	-6.82846E-06	-9.818958E-06	-5.05299E-06	6.802283E-07	-2.796972E-05	-2.063546E-05	5.443731E-06	4.181722E-06	1.769556E-05	1.591476E-05
-1.3239E-05	-7.801822E-07	-5.73423E-06	-7.735091E-06	-1.789318E-05	-8.810541E-06	-6.82846E-06	-9.818958E-06	-5.05299E-06	6.802283E-07	-2.796972E-05	-2.063546E-05	5.443731E-06	4.181722E-06	1.769556E-05	1.591476E-05
-1.391845E-05	-2.634833E-07	-6.787066E-06	-7.63169E-06	-1.759289E-05	-7.830467E-06	-5.776898E-06	-9.391013E-06	-5.705139E-06	3.223844E-07	-2.830378E-05	-2.147566E-05	6.07398E-06	5.092963E-06	1.708002E-05	1.597422E-05
-1.391845E-05	-2.634833E-07	-6.787066E-06	-7.63169E-06	-1.759289E-05	-7.830467E-06	-5.776898E-06	-9.391013E-06	-5.705139E-06	3.223844E-07	-2.830378E-05	-2.147566E-05	6.07398E-06	5.092963E-06	1.708002E-05	1.597422E-05
-1.353031E-05	-1.188014E-07	-6.745518E-06	-7.970662E-06	-1.824447E-05	-6.349049E-06	-5.604135E-06	-9.043109E-06	-2.847063E-06	8.18508E-07	-2.892804E-05	-2.165365E-05	7.185244E-06	4.935002E-06	1.77796E-05	1.46435E-05
-1.353031E-05	-1.188014E-07	-6.745518E-06	-7.970662E-06	-1.824447E-05	-6.349049E-06	-5.604135E-06	-9.043109E-06	-2.847063E-06	8.18508E-07	-2.892804E-05	-2.165365E-05	7.185244E-06	4.935002E-06	1.77796E-05	1.46435E-05
-1.252932E-05	1.178531E-07	-5.478651E-06	-7.84328E-06	-1.924187E-05	-5.164973E-06	-5.945531E-06	-8.794322E-06	6.0844E-07	1.391849E-06	-2.9618E-05	-2.165256E-05	6.02379E-06	5.50374E-06	1.888224E-05	1.26354E-05
-1.252932E-05	1.178531E-07	-5.478651E-06	-7.84328E-06	-1.924187E-05	-5.164973E-06	-5.945531E-06	-8.794322E-06	6.0844E-07	1.391849E-06	-2.9618E-05	-2.165256E-05	6.02379E-06	5.50374E-06	1.888224E-05	1.26354E-05
-1.269479E-05	4.661028E-07	-4.418248E-06	-6.928338E-06	-1.904098E-05	-4.829203E-06	-5.926214E-06	-8.889277E-06	-5.752356E-09	1.919888E-06	-3.144065E-05	-2.12688E-05	4.385732E-06	6.466849E-06	1.844363E-05	1.094097E-05
-1.269479E-05	4.661028E-07	-4.418248E-06	-6.928338E-06	-1.904098E-05	-4.829203E-06	-5.926214E-06	-8.889277E-06	-5.752356E-09	1.919888E-06	-3.144065E-05	-2.12688E-05	4.385732E-06	6.466849E-06	1.844363E-05	1.094097E-05
-1.40464E-05	4.38374E-07	-4.265181E-06	-5.808253E-06	-1.811631E-05	-5.778118E-06	-5.46221E-06	-9.365468E-06	-3.119614E-06	1.619713E-06	-3.316012E-05	-2.023716E-05	3.313911E-06	6.720497E-06	1.711383E-05	9.658193E-06
-1.40464E-05	4.38374E-07	-4.265181E-06	-5.808253E-06	-1.811631E-05	-5.778118E-06	-5.46221E-06	-9.365468E-06	-3.119614E-06	1.619713E-06	-3.316012E-05	-2.023716E-05	3.313911E-06	6.720497E-06	1.711383E-05	9.658193E-06
-1.529535E-05	-4.569707E-07	-4.458397E-06	-5.727622E-06	-1.768015E-05	-7.500378E-06	-4.223916E-06	-9.551329E-06	-3.276458E-06	9.293948E-07	-3.253391E-05	-1.996342E-05	3.686731E-06	6.181339E-06	1.653634E-05	1.008855E-05
-1.529535E-05	-4.569707E-07	-4.458397E-06	-5.727622E-06	-1.768015E-05	-7.500378E-06	-4.223916E-06	-9.551329E-06	-3.276458E-06	9.293948E-07	-3.253391E-05	-1.996342E-05	3.686731E-06	6.181339E-06	1.653634E-05	1.008855E-05
-1.560817E-05	-1.866668E-06	-4.424658E-06	-7.322868E-06	-1.790086E-05	-8.604714E-06	-2.111505E-06	-8.897629E-06	-1.910468E-06	8.455073E-08	-3.041835E-05	-2.097021E-05	5.204321E-06	6.045366E-06	1.684624E-05	1.260483E-05
-1.560817E-05	-1.866668E-06	-4.424658E-06	-7.322868E-06	-1.790086E-05	-8.604714E-06	-2.111505E-06	-8.897629E-06	-1.910468E-06	8.455073E-08	-3.041835E-05	-2.097021E-05	5.204321E-06	6.045366E-06	1.684624E-05	1.260483E-05
-1.521072E-05	-2.609061E-06	-4.564496E-06	-9.238252E-06	-1.831709E-05	-8.304353E-06	-9.285862E-07	-8.144544E-06	-5.523221E-07	-1.76363E-07	-2.951535E-05	-2.134123E-05	6.450943E-06	6.351385E-06	1.662036E-05	1.49521E-05
-1.521072E-05	-2.609061E-06	-4.564496E-06	-9.238252E-06	-1.831709E-05	-8.304353E-06	-9.285862E-07	-8.144544E-06	-5.523221E-07	-1.76363E-07	-2.951535E-05	-2.134123E-05	6.450943E-06	6.351385E-06	1.662036E-05	1.49521E-05
-1.473462E-05	-2.260219E-06	-4.759498E-06	-9.580911E-06	-1.861331E-05	-7.216872E-06	-1.368944E-06	-8.223272E-06	1.418136E-07	-1.448605E-07	-2.944499E-05	-2.106623E-05	6.945128E-06	6.274059E-06	1.530363E-05	1.519411E-05
-1.473462E-05	-2.260219E-06	-4.759498E-06	-9.580911E-06	-1.861331E-05	-7.216872E-06	-1.368944E-06	-8.223272E-06	1.418136E-07	-1.448605E-07	-2.944499E-05	-2.106623E-05	6.945128E-06	6.274059E-06	1.530363E-05	1.519411E-05
-1.430754E-05	-1.620012E-06	-4.147025E-06	-8.159041E-06	-1.898148E-05	-6.271081E-06	-1.439791E-06	-9.127967E-06	-5.802282E-07	-4.575645E-07	-2.890341E-05	-2.055792E-05	6.047875E-06	6.009946E-06	1.429285E-05	1.44907E-05
-1.430754E-05	-1.620012E-06	-4.147025E-06	-8.159041E-06	-1.898148E-05	-6.271081E-06	-1.439791E-06	-9.127967E-06	-5.802282E-07	-4.575645E-07	-2.890341E-05	-2.055792E-05	6.047875E-06	6.009946E-06	1.429285E-05	1.44907E-05
-1.375007E-05	-1.178157E-06	-3.564862E-06	-6.410412E-06	-1.969639E-05	-5.244982E-06	-1.868273E-07	-1.055795E-05	-1.687441E-06	-7.785366E-07	-2.907403E-05	-1.91074E-05	5.222618E-06	6.252647E-06	1.383596E-05	1.414674E-05
-1.375007E-05	-1.178157E-06	-3.564862E-06	-6.410412E-06	-1.969639E-05	-5.244982E-06	-1.868273E-07	-1.055795E-05	-1.687441E-06	-7.785366E-07	-2.907403E-05	-1.91074E-05	5.222618E-06	6.252647E-06	1.383596E-05	1.414674E-05
-1.297944E-05	-1.026369E-06	-4.245311E-06	-5.974157E-06	-2.052846E-05	-4.254385E-06	1.413316E-06	-1.186655E-05	-8.194676E-07	-7.977017E-07	-2.933058E-05	-1.8824E-05	5.031633E-06	6.33414E-06	1.428679E-05	1.351999E-05
-1.297944E-05	-1.026369E-06	-4.245311E-06	-5.974157E-06	-2.052846E-05	-4.254385E-06	1.413316E-06	-1.186655E-05	-8.194676E-07	-7.977017E-07	-2.933058E-05	-1.8824E-05	5.031633E-06	6.33414E-06	1.428679E-05	1.351999E-05
-1.204902E-05	-1.392211E-06	-5.408772E-06	-7.24381E-06	-2.079691E-05	-4.819159E-06	2.473056E-06	-1.229266E-05	7.822057E-07	-8.348232E-07	-2.851742E-05	-2.079816E-05	4.872536E-06	6.831488E-06	1.535237E-05	1.259127E-05
-1.204902E-05	-1.392211E-06	-5.408772E-06	-7.24381E-06	-2.079691E-05	-4.819159E-06	2.473056E-06	-1.229266E-05	7.822057E-07	-8.348232E-07	-2.851742E-05	-2.079816E-05	4.872536E-06	6.831488E-06	1.535237E-05	1.259127E-05
-1.125095E-05	-1.798891E-06	-6.006339E-06	-8.92656E-06	-2.001491E-05	-6.928704E-06	2.706156E-06	-1.248916E-05	6.286967E-07	-1.910908E-06	-2.74892E-05	-2.120132E-05	5.154433E-06	8.102774E-06	1.584041E-05	1.21734E-05
-1.125095E-05	-1.798891E-06	-6.006339E-06	-8.92656E-06	-2.001491E-05	-6.928704E-06	2.706156E-06	-1.248916E-05	6.286967E-07	-1.910908E-06	-2.74892E-05	-2.120132E-05	5.154433E-06	8.102774E-06	1.584041E-05	1.21734E-05
-1.099242E-05	-1.788576E-06	-5.737452E-06	-9.902174E-06	-1.865446E-05	-8.859916E-06	2.181243E-06	-1.302714E-05	1.620462E-07	-1.759255E-06	-2.702685E-05	-1.945979E-05	5.389921E-06	7.270624E-06	1.522163E-05	1.144339E-05
-1.099242E-05	-1.788576E-06	-5.737452E-06	-9.902174E-06	-1.865446E-05	-8.859916E-06	2.181243E-06	-1.302714E-05	1.620462E-07	-1.759255E-06	-2.702685E-05	-1.945979E-05	5.389921E-06	7.270624E-06	1.522163E-05	1.144339E-05
-1.135917E-05	-2.120302E-06	-4.406505E-06	-1.083412E-05	-1.791408E-05	-1.005045E-05	1.115304E-06	-1.232538E-05	1.424787E-06	-7.972395E-08	-2.670875E-05	-1.832171E-05	6.434181E-06	5.020423E-06	1.510342E-05	1.096068E-05
-1.135917E-05	-2.120302E-06	-4.406505E-06	-1.083412E-05	-1.791408E-05	-1.005045E-05	1.115304E-06	-1.232538E-05	1.424787E-06	-7.972395E-08	-2.670875E-05	-1.832171E-05	6.434181E-06	5.020423E-06	1.510342E-05	1.096068E-05
-1.19315E-05	-2.887134E-06	-2.983751E-06	-1.190593E-05	-1.81135E-05	-1.038995E-05	2.615184E-07	-1.008798E-05	2.868508E-06	2.04181E-06	-2.70862E-05	-1.728209E-05	9.194169E-06	4.609813E-06	1.479288E-05	1.28388E-05
-1.19315E-05	-2.887134E-06	-2.983751E-06	-1.190593E-05	-1.81135E-05	-1.038995E-05	2.615184E-07	-1.008798E-05	2.868508E-06	2.04181E-06	-2.70862E-05	-1.728209E-05	9.194169E-06	4.609813E-06	1.479288E-05	1.28388E-05
-1.232283E-05	-3.053444E-06	-2.931282E-06	-1.220362E-05	-1.847069E-05	-9.52716E-06	4.283434E-07	-9.009213E-06	1.480295E-06	3.266412E-06	-2.727649E-05	-1.527626E-05	1.029788E-05	5.123226E-06	1.429825E-05	1.504061E-05
-1.232283E-05	-3.053444E-06	-2.931282E-06	-1.220362E-05	-1.847069E-05	-9.52716E-06	4.283434E-07	-9.009213E-06	1.480295E-06	3.266412E-06	-2.727649E-05	-1.527626E-05	1.029788E-05	5.123226E-06	1.429825E-05	1.504061E-05
-1.275846E-05	-2.879494E-06	-3.594389E-06	-1.247877E-05	-1.867759E-05	-8.457314E-06	1.017831E-06	-1.065935E-05	-2.158358E-07	3.447444E-06	-2.709335E-05	-1.498536E-05	8.934292E-06	4.869053E-06	1.470673E-05	1.443173E-05
-1.275846E-05	-2.879494E-06	-3.594389E-06	-1.247877E-05	-1.867759E-05	-8.457314E-06	1.017831E-06	-1.065935E-05	-2.158358E-07	3.447444E-06	-2.709335E-05	-1.498536E-05	8.934292E-06	4.869053E-06	1.470673E-05	1.443173E-05
-1.348154E-05	-3.367397E-06	-3.204707E-06	-1.336157E-05	-1.86794E-05	-8.443515E-06	9.32819E-07	-1.32317E-05	5.839007E-07	1.817595E-06	-2.689088E-05	-1.686366E-05	8.368218E-06	4.241584E-06	1.438063E-05	1.380386E-05
-1.348154E-05	-3.367397E-06	-3.204707E-06	-1.336157E-05	-1.86794E-05	-8.443515E-06	9.32819E-07	-1.32317E-05	5.839007E-07	1.817595E-06	-2.689088E-05	-1.686366E-05	8.368218E-06	4.241584E-06	1.438063E-05	1.380386E-05
-1.41702E-05	-4.34338E-06	-1.581889E-06	-1.345003E-05	-1.812691E-05	-9.164766E-06	2.474704E-07	-1.405205E-05	1.529013E-06	-3.101009E-07	-2.604343E-05	-1.734272E-05	8.255069E-06	4.466893E-06	1.261374E-05	1.403753E-05
-1.41702E-05	-4.34338E-06	-1.581889E-06	-1.345003E-05	-1.812691E-05	-9.164766E-06	2.474704E-07	-1.405205E-05	1.529013E-06	-3.101009E-07	-2.604343E-05	-1.734272E-05	8.255069E-06	4.466893E-06	1.261374E-05	1.403753E-05
-1.438326E-05	-5.10172E-06	-4.954813E-08	-1.285754E-05	-1.692307E-05	-9.588236E-06	5.88194E-09	-1.378501E-05	1.205423E-06	-1.100294E-06	-2.554274E-05	-1.63795E-05	9.349308E-06	5.163733E-06	1.141497E-05	1.240923E-05
-1.438326E-05	-5.10172E-06	-4.954813E-08	-1.285754E-05	-1.692307E-05	-9.588236E-06	5.88194E-09	-1.378501E-05	1.205423E-06	-1.100294E-06	-2.554274E-05	-1.63795E-05	9.349308E-06	5.163733E-06	1.141497E-05	1.240923E-05
-1.362708E-05	-5.594509E-06	2.876765E-07	-1.313323E-05	-1.494153E-05	-9.349289E-06	7.627623E-07	-1.511512E-05	5.982949E-07	8.690077E-07	-2.800563E-05	-1.730549E-05	1.085599E-05	5.234994E-06	1.138339E-05	9.351578E-06
-1.362708E-05	-5.594509E-06	2.876765E-07	-1.313323E-05	-1.494153E-05	-9.349289E-06	7.627623E-07	-1.511512E-05	5.982949E-07	8.690077E-07	-2.800563E-05	-1.730549E-05	1.085599E-05	5.234994E-06	1.138339E-05	9.351578E-06
-1.1637E-05	-6.11429E-06	-6.200198E-07	-1.390399E-05	-1.296645E-05	-8.965656E-06	1.278697E-06	-1.735788E-05	2.439844E-06	2.152788E-06	-3.070603E-05	-1.943778E-05	1.051175E-05	4.381049E-06	1.252873E-05	7.838868E-06
-1.1637E-05	-6.11429E-06	-6.200198E-07	-1.390399E-05	-1.296645E-05	-8.965656E-06	1.278697E-06	-1.735788E-05	2.439844E-06	2.152788E-06	-3.070603E-05	-1.943778E-05	1.051175E-05	4.381049E-06	1.252873E-05	7.838868E-06
-9.419005E-06	-6.280407E-06	-1.589952E-06	-1.445128E-05	-1.241156E-05	-8.720387E-06	6.499895E-07	-1.792065E-05	4.478354E-06	1.750151E-06	-3.165482E-05	-2.017511E-05	9.713116E-06	2.835249E-06	1.155235E-05	8.509843E-06
-9.419005E-06	-6.280407E-06	-1.589952E-06	-1.445128E-05	-1.241156E-05	-8.720387E-06	6.499895E-07	-1.792065E-05	4.478354E-06	1.750151E-06	-3.165482E-05	-2.017511E-05	9.713116E-06	2.835249E-06	1.155235E-05	8.509843E-06
-8.581155E-06	-5.390075E-06	-1.362303E-06	-1.542827E-05	-1.290811E-05	-8.097464E-06	1.593183E-07	-1.716268E-05	3.924296E-06	2.529337E-06	-3.171269E-05	-1.985673E-05	9.294532E-06	2.679709E-06	8.924983E-06	9.392102E-06
-8.581155E-06	-5.390075E-06	-1.362303E-06	-1.542827E-05	-1.290811E-05	-8.097464E-06	1.593183E-07	-1.716268E-05	3.924296E-06	2.529337E-06	-3.171269E-05	-1.985673E-05	9.294532E-06	2.679709E-06	8.924983E-06	9.392102E-06
-9.587042E-06	-3.46757E-06	-1.025937E-06	-1.70929E-05	-1.380891E-05	-7.025754E-06	5.173144E-07	-1.743249E-05	3.667403E-06	4.124501E-06	-3.219548E-05	-2.002437E-05	8.523048E-06	4.352584E-06	7.380273E-06	9.495157E-06
-9.587042E-06	-3.46757E-06	-1.025937E-06	-1.70929E-05	-1.380891E-05	-7.025754E-06	5.173144E-07	-1.743249E-05	3.667403E-06	4.124501E-06	-3.219548E-05	-2.002437E-05	8.523048E-06	4.352584E-06	7.380273E-06	9.495157E-06
-1.153671E-05	-1.646166E-06	-2.229935E-06	-1.882488E-05	-1.518804E-05	-6.274219E-06	9.144047E-07	-1.904664E-05	3.246694E-06	5.464339E-06	-3.24457E-05	-2.064608E-05	7.489421E-06	6.053922E-06	7.925514E-06	8.104681E-06
-1.153671E-05	-1.646166E-06	-2.229935E-06	-1.882488E-05	-1.518804E-05	-6.274219E-06	9.144047E-07	-1.904664E-05	3.246694E-06	5.464339E-06	-3.24457E-05	-2.064608E-05	7.489421E-06	6.053922E-06	7.925514E-06	8.104681E-06
-1.308992E-05	-1.350309E-06	-4.097108E-06	-1.984375E-05	-1.604497E-05	-6.443953E-06	1.077659E-06	-2.036877E-05	2.783876E-06	5.924531E-06	-3.213467E-05	-1.908879E-05	7.631244E-06	5.952943E-06	8.903301E-06	8.463639E-06
-1.308992E-05	-1.350309E-06	-4.097108E-06	-1.984375E-05	-1.604497E-05	-6.443953E-06	1.077659E-06	-2.036877E-05	2.783876E-06	5.924531E-06	-3.213467E-05	-1.908879E-05	7.631244E-06	5.952943E-06	8.903301E-06	8.463639E-06
-1.354177E-05	-2.408447E-06	-4.987153E-06	-1.934231E-05	-1.556171E-05	-7.3501E-06	1.413206E-06	-2.105259E-05	1.662073E-06	5.734678E-06	-3.22877E-05	-1.599818E-05	8.341256E-06	4.036041E-06	8.83827E-06	9.575442E-06
-1.354177E-05	-2.408447E-06	-4.987153E-06	-1.934231E-05	-1.556171E-05	-7.3501E-06	1.413206E-06	-2.105259E-05	1.662073E-06	5.734678E-06	-3.22877E-05	-1.599818E-05	8.341256E-06	4.036041E-06	8.83827E-06	9.575442E-06
-1.299529E-05	-3.323623E-06	-4.779307E-06	-1.776725E-05	-1.421163E-05	-8.339729E-06	1.583768E-06	-2.122382E-05	-1.892075E-07	5.058774E-06	-3.247887E-05	-1.355449E-05	8.929755E-06	2.392426E-06	8.531231E-06	9.876913E-06
-1.299529E-05	-3.323623E-06	-4.779307E-06	-1.776725E-05	-1.421163E-05	-8.339729E-06	1.583768E-06	-2.122382E-05	-1.892075E-07	5.058774E-06	-3.247887E-05	-1.355449E-05	8.929755E-06	2.392426E-06	8.531231E-06	9.876913E-06
-1.175974E-05	-3.420124E-06	-4.434942E-06	-1.694823E-05	-1.260619E-05	-8.793527E-06	6.162065E-07	-1.975134E-05	-3.216272E-06	4.297678E-06	-3.185902E-05	-1.33897E-05	8.905504E-06	1.830482E-06	7.852169E-06	9.933052E-06
-1.175974E-05	-3.420124E-06	-4.434942E-06	-1.694823E-05	-1.260619E-05	-8.793527E-06	6.162065E-07	-1.975134E-05	-3.216272E-06	4.297678E-06	-3.185902E-05	-1.33897E-05	8.905504E-06	1.830482E-06	7.852169E-06	9.933052E-06
-1.032861E-05	-3.264136E-06	-4.299699E-06	-1.699043E-05	-1.153E-05	-8.067495E-06	-8.351585E-07	-1.719109E-05	-5.597656E-06	4.908514E-06	-3.074306E-05	-1.479999E-05	8.003447E-06	2.536901E-06	5.991809E-06	9.445129E-06
-1.032861E-05	-3.264136E-06	-4.299699E-06	-1.699043E-05	-1.153E-05	-8.067495E-06	-8.351585E-07	-1.719109E-05	-5.597656E-06	4.908514E-06	-3.074306E-05	-1.479999E-05	8.003447E-06	2.536901E-06	5.991809E-06	9.445129E-06
-9.498646E-06	-3.43881E-06	-3.777293E-06	-1.62563E-05	-1.180053E-05	-6.239093E-06	-1.384177E-06	-1.647945E-05	-4.906192E-06	6.015081E-06	-3.113284E-05	-1.602531E-05	7.737907E-06	4.159595E-06	4.29599E-06	8.847386E-06
-9.498646E-06	-3.43881E-06	-3.777293E-06	-1.62563E-05	-1.180053E-05	-6.239093E-06	-1.384177E-06	-1.647945E-05	-4.906192E-06	6.015081E-06	-3.113284E-05	-1.602531E-05	7.737907E-06	4.159595E-06	4.29599E-06	8.847386E-06
-9.910286E-06	-3.664458E-06	-2.709485E-06	-1.464662E-05	-1.31024E-05	-4.776417E-06	-1.886963E-06	-1.907093E-05	-1.459226E-06	5.951107E-06	-3.298244E-05	-1.524141E-05	7.571286E-06	6.090499E-06	3.782841E-06	8.234694E-06
-9.910286E-06	-3.664458E-06	-2.709485E-06	-1.464662E-05	-1.31024E-05	-4.776417E-06	-1.886963E-06	-1.907093E-05	-1.459226E-06	5.951107E-06	-3.298244E-05	-1.524141E-05	7.571286E-06	6.090499E-06	3.782841E-06	8.234694E-06
-1.140076E-05	-3.476288E-06	-1.776049E-06	-1.329143E-05	-1.423692E-05	-4.501168E-06	-3.115435E-06	-2.264548E-05	1.721442E-06	4.664286E-06	-3.455624E-05	-1.366089E-05	7.376379E-06	7.213803E-06	3.836978E-06	7.922364E-06
-1.140076E-05	-3.476288E-06	-1.776049E-06	-1.329143E-05	-1.423692E-05	-4.501168E-06	-3.115435E-06	-2.264548E-05	1.721442E-06	4.664286E-06	-3.455624E-05	-1.366089E-05	7.376379E-06	7.213803E-06	3.836978E-06	7.922364E-06
-1.306879E-05	-3.072783E-06	-1.60277E-06	-1.307022E-05	-1.451037E-05	-4.628595E-06	-3.749781E-06	-2.361555E-05	1.350034E-06	3.09756E-06	-3.460356E-05	-1.378113E-05	8.296302E-06	6.516851E-06	4.144522E-06	7.599791E-06
-1.306879E-05	-3.072783E-06	-1.60277E-06	-1.307022E-05	-1.451037E-05	-4.628595E-06	-3.749781E-06	-2.361555E-05	1.350034E-06	3.09756E-06	-3.460356E-05	-1.378113E-05	8.296302E-06	6.516851E-06	4.144522E-06	7.599791E-06
-1.405903E-05	-2.929391E-06	-1.950337E-06	-1.468365E-05	-1.435479E-05	-4.859884E-06	-3.24823E-06	-2.173161E-05	-9.899644E-07	2.604206E-06	-3.454701E-05	-1.513903E-05	9.767884E-06	5.361362E-06	5.417826E-06	7.385513E-06
-1.405903E-05	-2.929391E-06	-1.950337E-06	-1.468365E-05	-1.435479E-05	-4.859884E-06	-3.24823E-06	-2.173161E-05	-9.899644E-07	2.604206E-06	-3.454701E-05	-1.513903E-05	9.767884E-06	5.361362E-06	5.417826E-06	7.385513E-06
-1.401158E-05	-2.968997E-06	-2.136009E-06	-1.703267E-05	-1.475941E-05	-5.804891E-06	-2.724144E-06	-1.933832E-05	-1.997788E-06	4.159251E-06	-3.508665E-05	-1.711857E-05	9.606825E-06	5.537667E-06	7.915851E-06	7.387053E-06
-1.401158E-05	-2.968997E-06	-2.136009E-06	-1.703267E-05	-1.475941E-05	-5.804891E-06	-2.724144E-06	-1.933832E-05	-1.997788E-06	4.159251E-06	-3.508665E-05	-1.711857E-05	9.606825E-06	5.537667E-06	7.915851E-06	7.387053E-06
-1.308111E-05	-2.637312E-06	-1.96891E-06	-1.734131E-05	-1.603824E-05	-7.519136E-06	-3.153092E-06	-1.741587E-05	-1.705447E-06	5.160887E-06	-3.593998E-05	-1.923482E-05	7.927461E-06	6.78927E-06	9.397644E-06	7.287432E-06
-1.308111E-05	-2.637312E-06	-1.96891E-06	-1.734131E-05	-1.603824E-05	-7.519136E-06	-3.153092E-06	-1.741587E-05	-1.705447E-06	5.160887E-06	-3.593998E-05	-1.923482E-05	7.927461E-06	6.78927E-06	9.397644E-06	7.287432E-06
-1.184583E-05	-2.170601E-06	-1.690589E-06	-1.540267E-05	-1.697003E-05	-8.783731E-06	-4.38253E-06	-1.545806E-05	-2.229389E-06	4.240177E-06	-3.5932E-05	-2.003935E-05	6.756707E-06	7.480342E-06	8.894347E-06	7.325336E-06
-1.184583E-05	-2.170601E-06	-1.690589E-06	-1.540267E-05	-1.697003E-05	-8.783731E-06	-4.38253E-06	-1.545806E-05	-2.229389E-06	4.240177E-06	-3.5932E-05	-2.003935E-05	6.756707E-06	7.480342E-06	8.894347E-06	7.325336E-06
-1.113398E-05	-2.678618E-06	-1.518416E-06	-1.386661E-05	-1.65243E-05	-8.586047E-06	-5.362235E-06	-1.320885E-05	-2.302313E-06	2.405593E-06	-3.544751E-05	-1.899976E-05	6.295705E-06	6.805104E-06	7.508572E-06	7.862612E-06
-1.113398E-05	-2.678618E-06	-1.518416E-06	-1.386661E-05	-1.65243E-05	-8.586047E-06	-5.362235E-06	-1.320885E-05	-2.302313E-06	2.405593E-06	-3.544751E-05	-1.899976E-05	6.295705E-06	6.805104E-06	7.508572E-06	7.862612E-06
-1.151858E-05	-4.538411E-06	-1.548457E-06	-1.418904E-05	-1.589388E-05	-8.009848E-06	-5.206016E-06	-1.096847E-05	-1.35888E-06	7.312412E-07	-3.570882E-05	-1.818979E-05	5.825881E-06	7.172885E-06	7.349009E-06	7.500179E-06
-1.151858E-05	-4.538411E-06	-1.548457E-06	-1.418904E-05	-1.589388E-05	-8.009848E-06	-5.206016E-06	-1.096847E-05	-1.35888E-06	7.312412E-07	-3.570882E-05	-1.818979E-05	5.825881E-06	7.172885E-06	7.349009E-06	7.500179E-06
-1.240555E-05	-6.411603E-06	-1.909945E-06	-1.559401E-05	-1.622726E-05	-8.454504E-06	-3.890033E-06	-8.420366E-06	-3.728565E-07	-6.398931E-07	-3.686701E-05	-1.77671E-05	5.579493E-06	8.463734E-06	8.037347E-06	6.751116E-06
-1.240555E-05	-6.411603E-06	-1.909945E-06	-1.559401E-05	-1.622726E-05	-8.454504E-06	-3.890033E-06	-8.420366E-06	-3.728565E-07	-6.398931E-07	-3.686701E-05	-1.77671E-05	5.579493E-06	8.463734E-06	8.037347E-06	6.751116E-06
-1.256521E-05	-6.618307E-06	-2.332292E-06	-1.651343E-05	-1.694361E-05	-9.326985E-06	-2.326533E-06	-5.24089E-06	-4.544535E-07	-1.163421E-06	-3.648485E-05	-1.822348E-05	5.744841E-06	7.755298E-06	9.331836E-06	7.154681E-06
-1.256521E-05	-6.618307E-06	-2.332292E-06	-1.651343E-05	-1.694361E-05	-9.326985E-06	-2.326533E-06	-5.24089E-06	-4.544535E-07	-1.163421E-06	-3.648485E-05	-1.822348E-05	5.744841E-06	7.755298E-06	9.331836E-06	7.154681E-06
-1.188422E-05	-5.477081E-06	-1.820374E-06	-1.599723E-05	-1.76356E-05	-9.078914E-06	-1.923707E-06	-3.003252E-06	-1.506928E-06	-6.587474E-07	-3.560946E-05	-1.839575E-05	6.209296E-06	6.629145E-06	1.055438E-05	8.118469E-06
-1.188422E-05	-5.477081E-06	-1.820374E-06	-1.599723E-05	-1.76356E-05	-9.078914E-06	-1.923707E-06	-3.003252E-06	-1.506928E-06	-6.587474E-07	-3.560946E-05	-1.839575E-05	6.209296E-06	6.629145E-06	1.055438E-05	8.118469E-06
-1.118233E-05	-4.657587E-06	-7.382096E-07	-1.472673E-05	-1.820708E-05	-7.553453E-06	-3.313033E-06	-2.624516E-06	-2.445293E-06	-4.93289E-07	-3.649923E-05	-1.717315E-05	6.47397E-06	7.732589E-06	1.119974E-05	9.617756E-06
-1.118233E-05	-4.657587E-06	-7.382096E-07	-1.472673E-05	-1.820708E-05	-7.553453E-06	-3.313033E-06	-2.624516E-06	-2.445293E-06	-4.93289E-07	-3.649923E-05	-1.717315E-05	6.47397E-06	7.732589E-06	1.119974E-05	9.617756E-06
-1.090721E-05	-4.839423E-06	-9.884255E-07	-1.41454E-05	-1.820663E-05	-6.215636E-06	-5.552923E-06	-2.517497E-06	-1.954981E-06	-4.974601E-08	-3.823137E-05	-1.629423E-05	5.6699E-06	9.577392E-06	1.066013E-05	1.185845E-05
-1.090721E-05	-4.839423E-06	-9.884255E-07	-1.41454E-05	-1.820663E-05	-6.215636E-06	-5.552923E-06	-2.517497E-06	-1.954981E-06	-4.974601E-08	-3.823137E-05	-1.629423E-05	5.6699E-06	9.577392E-06	1.066013E-05	1.185845E-05
-1.0787E-05	-5.781841E-06	-2.836807E-06	-1.431299E-05	-1.776545E-05	-6.087375E-06	-7.107597E-06	-1.278046E-06	-1.467815E-06	8.858249E-07	-3.918522E-05	-1.77074E-05	5.143042E-06	8.70286E-06	1.079006E-05	1.283405E-05
-1.0787E-05	-5.781841E-06	-2.836807E-06	-1.431299E-05	-1.776545E-05	-6.087375E-06	-7.107597E-06	-1.278046E-06	-1.467815E-06	8.858249E-07	-3.918522E-05	-1.77074E-05	5.143042E-06	8.70286E-06	1.079006E-05	1.283405E-05
-1.024016E-05	-7.131044E-06	-5.125259E-06	-1.395556E-05	-1.750377E-05	-7.181436E-06	-7.461087E-06	9.995497E-07	-9.925044E-07	3.348814E-06	-3.794098E-05	-2.066095E-05	5.251272E-06	6.498733E-06	1.211657E-05	1.133662E-05
-1.024016E-05	-7.131044E-06	-5.125259E-06	-1.395556E-05	-1.750377E-05	-7.181436E-06	-7.461087E-06	9.995497E-07	-9.925044E-07	3.348814E-06	-3.794098E-05	-2.066095E-05	5.251272E-06	6.498733E-06	1.211657E-05	1.133662E-05
-9.374911E-06	-7.591241E-06	-6.230438E-06	-1.234986E-05	-1.780119E-05	-8.741185E-06	-7.190029E-06	1.913498E-06	5.935524E-07	6.255318E-06	-3.473947E-05	-2.220787E-05	5.963932E-06	4.727471E-06	1.205533E-05	9.034227E-06
-9.374911E-06	-7.591241E-06	-6.230438E-06	-1.234986E-05	-1.780119E-05	-8.741185E-06	-7.190029E-06	1.913498E-06	5.935524E-07	6.255318E-06	-3.473947E-05	-2.220787E-05	5.963932E-06	4.727471E-06	1.205533E-05	9.034227E-06
-9.037447E-06	-6.382429E-06	-5.220417E-06	-1.004097E-05	-1.847678E-05	-9.276238E-06	-6.876689E-06	-3.196183E-07	2.202722E-06	7.922917E-06	-3.225149E-05	-2.257785E-05	7.617316E-06	4.994197E-06	1.080329E-05	9.17266E-06
-9.037447E-06	-6.382429E-06	-5.220417E-06	-1.004097E-05	-1.847678E-05	-9.276238E-06	-6.876689E-06	-3.196183E-07	2.202722E-06	7.922917E-06	-3.225149E-05	-2.257785E-05	7.617316E-06	4.994197E-06	1.080329E-05	9.17266E-06
-9.583934E-06	-5.340176E-06	-4.079488E-06	-7.936057E-06	-1.85404E-05	-8.201298E-06	-6.857598E-06	-2.950895E-06	3.331997E-06	7.516518E-06	-3.260187E-05	-2.293745E-05	7.694751E-06	5.800772E-06	9.54989E-06	1.059959E-05
-9.583934E-06	-5.340176E-06	-4.079488E-06	-7.936057E-06	-1.85404E-05	-8.201298E-06	-6.857598E-06	-2.950895E-06	3.331997E-06	7.516518E-06	-3.260187E-05	-2.293745E-05	7.694751E-06	5.800772E-06	9.54989E-06	1.059959E-05
-1.062012E-05	-5.797514E-06	-4.1936E-06	-6.108244E-06	-1.722156E-05	-6.334253E-06	-7.067317E-06	-3.897098E-06	3.659481E-06	7.854373E-06	-3.298066E-05	-2.299473E-05	7.595228E-06	6.770738E-06	8.925627E-06	1.319126E-05
