-1.163156E-05	-1.532418E-06	-4.377648E-06	-1.48831E-05	-1.413244E-05	-8.392641E-06	-3.377825E-06	-1.201535E-05	1.827222E-06	1.718834E-07	-2.920165E-05	-1.562788E-05	6.605092E-06	7.783994E-06	1.302008E-05	1.415719E-05
-1.163156E-05	-1.532418E-06	-4.377648E-06	-1.48831E-05	-1.413244E-05	-8.392641E-06	-3.377825E-06	-1.201535E-05	1.827222E-06	1.718834E-07	-2.920165E-05	-1.562788E-05	6.605092E-06	7.783994E-06	1.302008E-05	1.415719E-05
-1.205701E-05	-1.509756E-06	-3.231581E-06	-1.42248E-05	-1.410651E-05	-8.937117E-06	-2.773467E-06	-9.94209E-06	2.13634E-06	9.901951E-07	-2.945601E-05	-1.90848E-05	5.767406E-06	7.835542E-06	1.03558E-05	1.573498E-05
-1.205701E-05	-1.509756E-06	-3.231581E-06	-1.42248E-05	-1.410651E-05	-8.937117E-06	-2.773467E-06	-9.94209E-06	2.13634E-06	9.901951E-07	-2.945601E-05	-1.90848E-05	5.767406E-06	7.835542E-06	1.03558E-05	1.573498E-05
-1.151083E-05	-1.762541E-06	-1.872988E-06	-1.282472E-05	-1.408072E-05	-9.462521E-06	-1.762696E-06	-8.918448E-06	2.210933E-06	2.095572E-06	-3.10903E-05	-2.129528E-05	7.581513E-06	5.641103E-06	5.773899E-06	1.686848E-05
-1.151083E-05	-1.762541E-06	-1.872988E-06	-1.282472E-05	-1.408072E-05	-9.462521E-06	-1.762696E-06	-8.918448E-06	2.210933E-06	2.095572E-06	-3.10903E-05	-2.129528E-05	7.581513E-06	5.641103E-06	5.773899E-06	1.686848E-05
-1.05323E-05	-2.076033E-06	-1.079931E-06	-1.12822E-05	-1.457638E-05	-9.286606E-06	-1.248764E-06	-9.422445E-06	1.134718E-06	1.158123E-06	-3.135362E-05	-2.0577E-05	8.893207E-06	4.246349E-06	3.873519E-06	1.42634E-05
-1.05323E-05	-2.076033E-06	-1.079931E-06	-1.12822E-05	-1.457638E-05	-9.286606E-06	-1.248764E-06	-9.422445E-06	1.134718E-06	1.158123E-06	-3.135362E-05	-2.0577E-05	8.893207E-06	4.246349E-06	3.873519E-06	1.42634E-05
-1.050475E-05	-2.431121E-06	-6.186578E-07	-1.009041E-05	-1.571464E-05	-8.533189E-06	-2.85288E-07	-9.902202E-06	-9.737604E-07	-7.48075E-07	-3.041289E-05	-1.987012E-05	8.470318E-06	4.390176E-06	4.465552E-06	1.079197E-05
-1.050475E-05	-2.431121E-06	-6.186578E-07	-1.009041E-05	-1.571464E-05	-8.533189E-06	-2.85288E-07	-9.902202E-06	-9.737604E-07	-7.48075E-07	-3.041289E-05	-1.987012E-05	8.470318E-06	4.390176E-06	4.465552E-06	1.079197E-05
-1.152475E-05	-2.668543E-06	-7.32188E-07	-1.00429E-05	-1.674173E-05	-7.684501E-06	1.256301E-06	-1.073617E-05	-2.090365E-06	-6.593079E-07	-3.063977E-05	-1.816601E-05	9.307083E-06	4.899796E-06	5.429128E-06	9.058692E-06
-1.152475E-05	-2.668543E-06	-7.32188E-07	-1.00429E-05	-1.674173E-05	-7.684501E-06	1.256301E-06	-1.073617E-05	-2.090365E-06	-6.593079E-07	-3.063977E-05	-1.816601E-05	9.307083E-06	4.899796E-06	5.429128E-06	9.058692E-06
-1.233508E-05	-2.73076E-06	-1.847373E-06	-1.110753E-05	-1.659459E-05	-7.371477E-06	1.597051E-06	-1.289808E-05	-1.242668E-06	7.915671E-07	-3.321774E-05	-1.59665E-05	1.144104E-05	5.308041E-06	6.001278E-06	8.232478E-06
-1.233508E-05	-2.73076E-06	-1.847373E-06	-1.110753E-05	-1.659459E-05	-7.371477E-06	1.597051E-06	-1.289808E-05	-1.242668E-06	7.915671E-07	-3.321774E-05	-1.59665E-05	1.144104E-05	5.308041E-06	6.001278E-06	8.232478E-06
-1.235547E-05	-2.834492E-06	-2.807744E-06	-1.179691E-05	-1.52189E-05	-7.975061E-06	-3.14336E-07	-1.409857E-05	-1.431531E-06	2.867512E-06	-3.520603E-05	-1.62734E-05	1.145235E-05	5.114352E-06	5.241865E-06	9.3448E-06
-1.235547E-05	-2.834492E-06	-2.807744E-06	-1.179691E-05	-1.52189E-05	-7.975061E-06	-3.14336E-07	-1.409857E-05	-1.431531E-06	2.867512E-06	-3.520603E-05	-1.62734E-05	1.145235E-05	5.114352E-06	5.241865E-06	9.3448E-06
-1.172895E-05	-3.111802E-06	-2.503488E-06	-1.145908E-05	-1.417521E-05	-8.089712E-06	-2.761478E-06	-1.356875E-05	-4.160669E-06	6.032641E-06	-3.537002E-05	-1.85053E-05	9.424512E-06	6.086146E-06	3.957953E-06	1.096538E-05
-1.172895E-05	-3.111802E-06	-2.503488E-06	-1.145908E-05	-1.417521E-05	-8.089712E-06	-2.761478E-06	-1.356875E-05	-4.160669E-06	6.032641E-06	-3.537002E-05	-1.85053E-05	9.424512E-06	6.086146E-06	3.957953E-06	1.096538E-05
-1.072209E-05	-3.821797E-06	-1.203774E-06	-1.063869E-05	-1.470717E-05	-6.85982E-06	-3.682375E-06	-1.333823E-05	-6.388785E-06	8.002001E-06	-3.370186E-05	-2.044388E-05	7.139413E-06	7.499882E-06	3.853556E-06	1.140969E-05
-1.072209E-05	-3.821797E-06	-1.203774E-06	-1.063869E-05	-1.470717E-05	-6.85982E-06	-3.682375E-06	-1.333823E-05	-6.388785E-06	8.002001E-06	-3.370186E-05	-2.044388E-05	7.139413E-06	7.499882E-06	3.853556E-06	1.140969E-05
-9.75261E-06	-5.351827E-06	2.459448E-07	-9.662568E-06	-1.596357E-05	-6.295228E-06	-3.663512E-06	-1.388407E-05	-6.133348E-06	8.40841E-06	-3.213271E-05	-2.084105E-05	7.318616E-06	8.463133E-06	5.557217E-06	1.068557E-05
-9.75261E-06	-5.351827E-06	2.459448E-07	-9.662568E-06	-1.596357E-05	-6.295228E-06	-3.663512E-06	-1.388407E-05	-6.133348E-06	8.40841E-06	-3.213271E-05	-2.084105E-05	7.318616E-06	8.463133E-06	5.557217E-06	1.068557E-05
-9.296878E-06	-6.934148E-06	7.976635E-07	-9.165686E-06	-1.681533E-05	-6.967995E-06	-3.91637E-06	-1.432369E-05	-3.826571E-06	7.682954E-06	-3.149933E-05	-1.938763E-05	8.391808E-06	8.692253E-06	7.009163E-06	9.539974E-06
-9.296878E-06	-6.934148E-06	7.976635E-07	-9.165686E-06	-1.681533E-05	-6.967995E-06	-3.91637E-06	-1.432369E-05	-3.826571E-06	7.682954E-06	-3.149933E-05	-1.938763E-05	8.391808E-06	8.692253E-06	7.009163E-06	9.539974E-06
-9.696979E-06	-6.855523E-06	-1.288875E-07	-9.921263E-06	-1.719611E-05	-7.077896E-06	-4.426412E-06	-1.436789E-05	-2.145644E-06	6.909416E-06	-3.109934E-05	-1.826004E-05	8.834467E-06	8.770339E-06	8.902181E-06	9.5398E-06
-9.696979E-06	-6.855523E-06	-1.288875E-07	-9.921263E-06	-1.719611E-05	-7.077896E-06	-4.426412E-06	-1.436789E-05	-2.145644E-06	6.909416E-06	-3.109934E-05	-1.826004E-05	8.834467E-06	8.770339E-06	8.902181E-06	9.5398E-06
-1.092496E-05	-4.470454E-06	-1.79413E-06	-1.142947E-05	-1.713204E-05	-6.741237E-06	-5.058781E-06	-1.433104E-05	-2.805647E-06	6.08901E-06	-3.168831E-05	-1.799803E-05	8.342588E-06	7.640792E-06	1.017315E-05	1.082557E-05
-1.092496E-05	-4.470454E-06	-1.79413E-06	-1.142947E-05	-1.713204E-05	-6.741237E-06	-5.058781E-06	-1.433104E-05	-2.805647E-06	6.08901E-06	-3.168831E-05	-1.799803E-05	8.342588E-06	7.640792E-06	1.017315E-05	1.082557E-05
-1.239867E-05	-6.616323E-07	-2.903433E-06	-1.218748E-05	-1.663065E-05	-6.866149E-06	-5.7267E-06	-1.410779E-05	-4.32549E-06	4.860891E-06	-3.220787E-05	-1.89886E-05	7.626E-06	7.060377E-06	1.058277E-05	1.103705E-05
-1.239867E-05	-6.616323E-07	-2.903433E-06	-1.218748E-05	-1.663065E-05	-6.866149E-06	-5.7267E-06	-1.410779E-05	-4.32549E-06	4.860891E-06	-3.220787E-05	-1.89886E-05	7.626E-06	7.060377E-06	1.058277E-05	1.103705E-05
-1.321311E-05	2.521926E-06	-2.903123E-06	-1.134764E-05	-1.594837E-05	-6.90068E-06	-6.02187E-06	-1.31698E-05	-5.656078E-06	2.856835E-06	-3.096358E-05	-2.059368E-05	7.091556E-06	7.998598E-06	1.108942E-05	9.734986E-06
-1.321311E-05	2.521926E-06	-2.903123E-06	-1.134764E-05	-1.594837E-05	-6.90068E-06	-6.02187E-06	-1.31698E-05	-5.656078E-06	2.856835E-06	-3.096358E-05	-2.059368E-05	7.091556E-06	7.998598E-06	1.108942E-05	9.734986E-06
-1.282409E-05	2.375695E-06	-2.160545E-06	-9.801696E-06	-1.535145E-05	-6.531543E-06	-5.596105E-06	-1.197843E-05	-5.294255E-06	2.916344E-07	-2.929992E-05	-2.114801E-05	6.94479E-06	8.337106E-06	1.233545E-05	9.048519E-06
-1.282409E-05	2.375695E-06	-2.160545E-06	-9.801696E-06	-1.535145E-05	-6.531543E-06	-5.596105E-06	-1.197843E-05	-5.294255E-06	2.916344E-07	-2.929992E-05	-2.114801E-05	6.94479E-06	8.337106E-06	1.233545E-05	9.048519E-06
-1.1833E-05	-1.47986E-06	-1.281102E-06	-9.167185E-06	-1.529912E-05	-6.099376E-06	-4.556179E-06	-1.15926E-05	-3.504263E-06	-2.73415E-06	-3.094066E-05	-2.018567E-05	6.882869E-06	6.843807E-06	1.305287E-05	9.183006E-06
-1.1833E-05	-1.47986E-06	-1.281102E-06	-9.167185E-06	-1.529912E-05	-6.099376E-06	-4.556179E-06	-1.15926E-05	-3.504263E-06	-2.73415E-06	-3.094066E-05	-2.018567E-05	6.882869E-06	6.843807E-06	1.305287E-05	9.183006E-06
-1.170444E-05	-5.967503E-06	-7.267228E-07	-9.843312E-06	-1.628459E-05	-5.685161E-06	-3.397898E-06	-1.20867E-05	-1.433885E-06	-5.497803E-06	-3.406743E-05	-1.920174E-05	5.950784E-06	4.761869E-06	1.236563E-05	9.278833E-06
-1.170444E-05	-5.967503E-06	-7.267228E-07	-9.843312E-06	-1.628459E-05	-5.685161E-06	-3.397898E-06	-1.20867E-05	-1.433885E-06	-5.497803E-06	-3.406743E-05	-1.920174E-05	5.950784E-06	4.761869E-06	1.236563E-05	9.278833E-06
-1.302054E-05	-8.554106E-06	-1.203724E-06	-1.064299E-05	-1.785789E-05	-5.254303E-06	-2.64539E-06	-1.254697E-05	2.247263E-07	-4.737969E-06	-3.536816E-05	-1.808341E-05	4.507464E-06	6.013457E-06	1.183398E-05	9.186905E-06
-1.302054E-05	-8.554106E-06	-1.203724E-06	-1.064299E-05	-1.785789E-05	-5.254303E-06	-2.64539E-06	-1.254697E-05	2.247263E-07	-4.737969E-06	-3.536816E-05	-1.808341E-05	4.507464E-06	6.013457E-06	1.183398E-05	9.186905E-06
-1.479983E-05	-9.390165E-06	-2.563952E-06	-1.047269E-05	-1.883533E-05	-5.142023E-06	-2.910994E-06	-1.222818E-05	1.574082E-06	-1.663556E-07	-3.53669E-05	-1.662692E-05	4.730148E-06	1.012719E-05	1.171282E-05	9.273591E-06
-1.479983E-05	-9.390165E-06	-2.563952E-06	-1.047269E-05	-1.883533E-05	-5.142023E-06	-2.910994E-06	-1.222818E-05	1.574082E-06	-1.663556E-07	-3.53669E-05	-1.662692E-05	4.730148E-06	1.012719E-05	1.171282E-05	9.273591E-06
-1.56545E-05	-9.524869E-06	-2.955099E-06	-9.878139E-06	-1.868687E-05	-5.888293E-06	-4.641392E-06	-1.138643E-05	2.271642E-06	3.955112E-06	-3.62371E-05	-1.599572E-05	6.178986E-06	1.167257E-05	1.128799E-05	9.00179E-06
-1.56545E-05	-9.524869E-06	-2.955099E-06	-9.878139E-06	-1.868687E-05	-5.888293E-06	-4.641392E-06	-1.138643E-05	2.271642E-06	3.955112E-06	-3.62371E-05	-1.599572E-05	6.178986E-06	1.167257E-05	1.128799E-05	9.00179E-06
-1.485826E-05	-9.188103E-06	-2.045451E-06	-9.934712E-06	-1.790834E-05	-6.939811E-06	-6.68543E-06	-1.067481E-05	2.570608E-06	5.064636E-06	-3.593261E-05	-1.677573E-05	7.581297E-06	1.009773E-05	1.100134E-05	8.451626E-06
-1.485826E-05	-9.188103E-06	-2.045451E-06	-9.934712E-06	-1.790834E-05	-6.939811E-06	-6.68543E-06	-1.067481E-05	2.570608E-06	5.064636E-06	-3.593261E-05	-1.677573E-05	7.581297E-06	1.009773E-05	1.100134E-05	8.451626E-06
-1.302672E-05	-7.981673E-06	-2.015897E-06	-1.080659E-05	-1.728549E-05	-6.915563E-06	-7.097016E-06	-1.049527E-05	2.981819E-06	4.319407E-06	-3.514823E-05	-1.732767E-05	8.619478E-06	7.927053E-06	1.197018E-05	8.643258E-06
-1.302672E-05	-7.981673E-06	-2.015897E-06	-1.080659E-05	-1.728549E-05	-6.915563E-06	-7.097016E-06	-1.049527E-05	2.981819E-06	4.319407E-06	-3.514823E-05	-1.732767E-05	8.619478E-06	7.927053E-06	1.197018E-05	8.643258E-06
-1.195453E-05	-6.428024E-06	-3.675538E-06	-1.204906E-05	-1.71607E-05	-5.829865E-06	-6.014138E-06	-1.112758E-05	1.641297E-06	4.6809E-06	-3.49225E-05	-1.621282E-05	8.91075E-06	6.812072E-06	1.254096E-05	8.277782E-06
-1.195453E-05	-6.428024E-06	-3.675538E-06	-1.204906E-05	-1.71607E-05	-5.829865E-06	-6.014138E-06	-1.112758E-05	1.641297E-06	4.6809E-06	-3.49225E-05	-1.621282E-05	8.91075E-06	6.812072E-06	1.254096E-05	8.277782E-06
-1.250923E-05	-5.05794E-06	-5.285657E-06	-1.276882E-05	-1.741195E-05	-5.008499E-06	-4.770769E-06	-1.185869E-05	-2.885553E-07	7.08573E-06	-3.552576E-05	-1.608892E-05	9.531274E-06	6.618277E-06	1.263341E-05	6.518168E-06
-1.250923E-05	-5.05794E-06	-5.285657E-06	-1.276882E-05	-1.741195E-05	-5.008499E-06	-4.770769E-06	-1.185869E-05	-2.885553E-07	7.08573E-06	-3.552576E-05	-1.608892E-05	9.531274E-06	6.618277E-06	1.263341E-05	6.518168E-06
-1.355452E-05	-3.342426E-06	-5.223139E-06	-1.226054E-05	-1.778087E-05	-5.157792E-06	-3.722512E-06	-1.137211E-05	8.699186E-07	8.575572E-06	-3.531773E-05	-1.691718E-05	9.599061E-06	6.483981E-06	1.254747E-05	5.942091E-06
-1.355452E-05	-3.342426E-06	-5.223139E-06	-1.226054E-05	-1.778087E-05	-5.157792E-06	-3.722512E-06	-1.137211E-05	8.699186E-07	8.575572E-06	-3.531773E-05	-1.691718E-05	9.599061E-06	6.483981E-06	1.254747E-05	5.942091E-06
-1.403421E-05	-9.352514E-07	-4.037211E-06	-1.090219E-05	-1.754071E-05	-5.696408E-06	-2.793248E-06	-1.028805E-05	4.881233E-06	7.401457E-06	-3.316022E-05	-1.714683E-05	7.529825E-06	7.747531E-06	1.320034E-05	5.821953E-06
-1.403421E-05	-9.352514E-07	-4.037211E-06	-1.090219E-05	-1.754071E-05	-5.696408E-06	-2.793248E-06	-1.028805E-05	4.881233E-06	7.401457E-06	-3.316022E-05	-1.714683E-05	7.529825E-06	7.747531E-06	1.320034E-05	5.821953E-06
-1.404108E-05	2.324207E-06	-2.981097E-06	-9.482119E-06	-1.591796E-05	-5.885384E-06	-1.710457E-06	-1.00129E-05	4.370243E-06	3.46465E-06	-3.353464E-05	-1.679314E-05	6.400867E-06	9.668007E-06	1.413853E-05	5.637754E-06
-1.404108E-05	2.324207E-06	-2.981097E-06	-9.482119E-06	-1.591796E-05	-5.885384E-06	-1.710457E-06	-1.00129E-05	4.370243E-06	3.46465E-06	-3.353464E-05	-1.679314E-05	6.400867E-06	9.668007E-06	1.413853E-05	5.637754E-06
-1.381833E-05	5.292234E-06	-2.315913E-06	-9.007371E-06	-1.409631E-05	-5.879342E-06	-2.150152E-07	-1.018957E-05	8.222868E-07	-4.149462E-06	-3.388893E-05	-1.814469E-05	8.019464E-06	9.4971E-06	1.46067E-05	6.271234E-06
-1.381833E-05	5.292234E-06	-2.315913E-06	-9.007371E-06	-1.409631E-05	-5.879342E-06	-2.150152E-07	-1.018957E-05	8.222868E-07	-4.149462E-06	-3.388893E-05	-1.814469E-05	8.019464E-06	9.4971E-06	1.46067E-05	6.271234E-06
-1.357656E-05	6.753476E-06	-2.209107E-06	-9.535422E-06	-1.409303E-05	-5.994554E-06	1.591561E-06	-1.043004E-05	-3.679392E-08	-1.018749E-05	-3.360763E-05	-1.909868E-05	8.407754E-06	7.525912E-06	1.431932E-05	7.208485E-06
-1.357656E-05	6.753476E-06	-2.209107E-06	-9.535422E-06	-1.409303E-05	-5.994554E-06	1.591561E-06	-1.043004E-05	-3.679392E-08	-1.018749E-05	-3.360763E-05	-1.909868E-05	8.407754E-06	7.525912E-06	1.431932E-05	7.208485E-06
-1.34475E-05	8.496885E-06	-2.461198E-06	-9.350723E-06	-1.559947E-05	-6.034529E-06	3.350869E-06	-1.131724E-05	2.900971E-07	-9.709719E-06	-3.421511E-05	-1.8378E-05	6.032963E-06	5.707711E-06	1.425983E-05	6.426179E-06
-1.34475E-05	8.496885E-06	-2.461198E-06	-9.350723E-06	-1.559947E-05	-6.034529E-06	3.350869E-06	-1.131724E-05	2.900971E-07	-9.709719E-06	-3.421511E-05	-1.8378E-05	6.032963E-06	5.707711E-06	1.425983E-05	6.426179E-06
-1.315167E-05	1.075298E-05	-2.412711E-06	-8.541389E-06	-1.720389E-05	-5.640731E-06	3.669766E-06	-1.283583E-05	1.047488E-06	-6.732741E-06	-3.430741E-05	-1.640833E-05	4.037649E-06	4.840553E-06	1.59116E-05	5.464417E-06
-1.315167E-05	1.075298E-05	-2.412711E-06	-8.541389E-06	-1.720389E-05	-5.640731E-06	3.669766E-06	-1.283583E-05	1.047488E-06	-6.732741E-06	-3.430741E-05	-1.640833E-05	4.037649E-06	4.840553E-06	1.59116E-05	5.464417E-06
-1.284143E-05	1.086057E-05	-2.238195E-06	-8.780949E-06	-1.80359E-05	-4.932582E-06	2.042061E-06	-1.378371E-05	1.613144E-06	-3.753882E-06	-3.423936E-05	-1.546611E-05	4.843066E-06	5.394497E-06	1.834544E-05	5.622597E-06
-1.284143E-05	1.086057E-05	-2.238195E-06	-8.780949E-06	-1.80359E-05	-4.932582E-06	2.042061E-06	-1.378371E-05	1.613144E-06	-3.753882E-06	-3.423936E-05	-1.546611E-05	4.843066E-06	5.394497E-06	1.834544E-05	5.622597E-06
-1.306796E-05	8.351899E-06	-2.29742E-06	-9.45971E-06	-1.72968E-05	-4.519595E-06	5.315462E-07	-1.327848E-05	3.165407E-06	-1.479121E-06	-3.400936E-05	-1.526994E-05	7.666381E-06	5.731345E-06	1.897898E-05	6.675299E-06
-1.306796E-05	8.351899E-06	-2.29742E-06	-9.45971E-06	-1.72968E-05	-4.519595E-06	5.315462E-07	-1.327848E-05	3.165407E-06	-1.479121E-06	-3.400936E-05	-1.526994E-05	7.666381E-06	5.731345E-06	1.897898E-05	6.675299E-06
-1.312409E-05	4.36962E-06	-2.139861E-06	-9.021207E-06	-1.542876E-05	-4.469755E-06	3.910779E-07	-1.297907E-05	4.241509E-06	-5.11536E-07	-3.473028E-05	-1.506543E-05	1.005571E-05	5.702531E-06	1.875188E-05	7.984095E-06
-1.312409E-05	4.36962E-06	-2.139861E-06	-9.021207E-06	-1.542876E-05	-4.469755E-06	3.910779E-07	-1.297907E-05	4.241509E-06	-5.11536E-07	-3.473028E-05	-1.506543E-05	1.005571E-05	5.702531E-06	1.875188E-05	7.984095E-06
-1.205218E-05	3.380759E-08	-1.635193E-06	-7.426883E-06	-1.401339E-05	-4.414738E-06	5.932873E-07	-1.478262E-05	3.644755E-06	-1.004164E-06	-3.565964E-05	-1.503588E-05	9.650096E-06	5.313522E-06	1.97793E-05	9.360724E-06
-1.205218E-05	3.380759E-08	-1.635193E-06	-7.426883E-06	-1.401339E-05	-4.414738E-06	5.932873E-07	-1.478262E-05	3.644755E-06	-1.004164E-06	-3.565964E-05	-1.503588E-05	9.650096E-06	5.313522E-06	1.97793E-05	9.360724E-06
-1.056552E-05	-3.022705E-06	-1.664171E-06	-5.771739E-06	-1.381604E-05	-4.501835E-06	5.092166E-08	-1.734645E-05	2.473178E-06	-2.093909E-06	-3.611328E-05	-1.582342E-05	8.441268E-06	4.853105E-06	2.251768E-05	1.038087E-05
-1.056552E-05	-3.022705E-06	-1.664171E-06	-5.771739E-06	-1.381604E-05	-4.501835E-06	5.092166E-08	-1.734645E-05	2.473178E-06	-2.093909E-06	-3.611328E-05	-1.582342E-05	8.441268E-06	4.853105E-06	2.251768E-05	1.038087E-05
-9.708478E-06	-3.926027E-06	-2.603758E-06	-5.193276E-06	-1.492315E-05	-5.019318E-06	-1.055132E-06	-1.842025E-05	9.529443E-07	-2.762649E-06	-3.487945E-05	-1.683663E-05	8.271981E-06	4.76799E-06	2.471282E-05	1.166692E-05
-9.708478E-06	-3.926027E-06	-2.603758E-06	-5.193276E-06	-1.492315E-05	-5.019318E-06	-1.055132E-06	-1.842025E-05	9.529443E-07	-2.762649E-06	-3.487945E-05	-1.683663E-05	8.271981E-06	4.76799E-06	2.471282E-05	1.166692E-05
-9.523165E-06	-3.741746E-06	-3.692819E-06	-5.482294E-06	-1.681061E-05	-5.820295E-06	-1.580236E-06	-1.775149E-05	-6.130522E-07	-1.999877E-06	-3.347592E-05	-1.732033E-05	9.735762E-06	4.972014E-06	2.525537E-05	1.335054E-05
-9.523165E-06	-3.741746E-06	-3.692819E-06	-5.482294E-06	-1.681061E-05	-5.820295E-06	-1.580236E-06	-1.775149E-05	-6.130522E-07	-1.999877E-06	-3.347592E-05	-1.732033E-05	9.735762E-06	4.972014E-06	2.525537E-05	1.335054E-05
-9.567711E-06	-4.690213E-06	-4.170678E-06	-4.994186E-06	-1.772652E-05	-6.555764E-06	-7.845596E-07	-1.662907E-05	-1.535101E-06	6.702728E-07	-3.377567E-05	-1.744483E-05	1.070655E-05	4.860427E-06	2.451939E-05	1.368805E-05
-9.567711E-06	-4.690213E-06	-4.170678E-06	-4.994186E-06	-1.772652E-05	-6.555764E-06	-7.845596E-07	-1.662907E-05	-1.535101E-06	6.702728E-07	-3.377567E-05	-1.744483E-05	1.070655E-05	4.860427E-06	2.451939E-05	1.368805E-05
-9.492273E-06	-7.922486E-06	-3.933181E-06	-3.88022E-06	-1.657335E-05	-7.072334E-06	8.243934E-07	-1.652431E-05	-9.345435E-07	2.758253E-06	-3.451942E-05	-1.728634E-05	1.049627E-05	4.728154E-06	2.324704E-05	1.275311E-05
-9.492273E-06	-7.922486E-06	-3.933181E-06	-3.88022E-06	-1.657335E-05	-7.072334E-06	8.243934E-07	-1.652431E-05	-9.345435E-07	2.758253E-06	-3.451942E-05	-1.728634E-05	1.049627E-05	4.728154E-06	2.324704E-05	1.275311E-05
-9.274397E-06	-1.257534E-05	-3.468642E-06	-4.36541E-06	-1.447649E-05	-7.54621E-06	2.20394E-06	-1.752786E-05	-1.942084E-08	2.953514E-06	-3.451176E-05	-1.746633E-05	9.355623E-06	4.67316E-06	2.300207E-05	1.138186E-05
-9.274397E-06	-1.257534E-05	-3.468642E-06	-4.36541E-06	-1.447649E-05	-7.54621E-06	2.20394E-06	-1.752786E-05	-1.942084E-08	2.953514E-06	-3.451176E-05	-1.746633E-05	9.355623E-06	4.67316E-06	2.300207E-05	1.138186E-05
-9.072997E-06	-1.710758E-05	-3.434913E-06	-6.224121E-06	-1.335755E-05	-8.192289E-06	2.887208E-06	-1.799477E-05	1.857658E-07	3.396712E-06	-3.313276E-05	-1.680748E-05	7.871089E-06	4.72325E-06	2.316126E-05	1.104584E-05
-9.072997E-06	-1.710758E-05	-3.434913E-06	-6.224121E-06	-1.335755E-05	-8.192289E-06	2.887208E-06	-1.799477E-05	1.857658E-07	3.396712E-06	-3.313276E-05	-1.680748E-05	7.871089E-06	4.72325E-06	2.316126E-05	1.104584E-05
-9.173479E-06	-1.946924E-05	-3.956502E-06	-7.56766E-06	-1.408245E-05	-8.707558E-06	2.656757E-06	-1.717342E-05	-5.980555E-07	5.846518E-06	-3.079961E-05	-1.633331E-05	7.047928E-06	4.574125E-06	2.251911E-05	1.170207E-05
-9.173479E-06	-1.946924E-05	-3.956502E-06	-7.56766E-06	-1.408245E-05	-8.707558E-06	2.656757E-06	-1.717342E-05	-5.980555E-07	5.846518E-06	-3.079961E-05	-1.633331E-05	7.047928E-06	4.574125E-06	2.251911E-05	1.170207E-05
-9.902044E-06	-1.745672E-05	-4.633012E-06	-8.731665E-06	-1.600013E-05	-8.47452E-06	1.133364E-06	-1.662462E-05	-1.683944E-06	8.365997E-06	-2.974078E-05	-1.666393E-05	7.715658E-06	4.681023E-06	2.176265E-05	1.190466E-05
-9.902044E-06	-1.745672E-05	-4.633012E-06	-8.731665E-06	-1.600013E-05	-8.47452E-06	1.133364E-06	-1.662462E-05	-1.683944E-06	8.365997E-06	-2.974078E-05	-1.666393E-05	7.715658E-06	4.681023E-06	2.176265E-05	1.190466E-05
-1.095011E-05	-1.184332E-05	-5.428233E-06	-1.101197E-05	-1.783146E-05	-7.782565E-06	-1.047062E-06	-1.72864E-05	-2.700187E-06	9.206105E-06	-3.11567E-05	-1.783714E-05	9.278435E-06	5.122656E-06	2.104555E-05	1.1781E-05
-1.095011E-05	-1.184332E-05	-5.428233E-06	-1.101197E-05	-1.783146E-05	-7.782565E-06	-1.047062E-06	-1.72864E-05	-2.700187E-06	9.206105E-06	-3.11567E-05	-1.783714E-05	9.278435E-06	5.122656E-06	2.104555E-05	1.1781E-05
-1.16112E-05	-6.766664E-06	-6.483592E-06	-1.411935E-05	-1.860536E-05	-7.616527E-06	-2.646984E-06	-1.825914E-05	-3.633842E-06	7.765377E-06	-3.159181E-05	-1.776548E-05	9.384608E-06	5.104281E-06	1.985214E-05	1.279614E-05
-1.16112E-05	-6.766664E-06	-6.483592E-06	-1.411935E-05	-1.860536E-05	-7.616527E-06	-2.646984E-06	-1.825914E-05	-3.633842E-06	7.765377E-06	-3.159181E-05	-1.776548E-05	9.384608E-06	5.104281E-06	1.985214E-05	1.279614E-05
-1.183842E-05	-5.629306E-06	-7.282167E-06	-1.632796E-05	-1.803076E-05	-8.158156E-06	-3.664881E-06	-1.884884E-05	-3.60995E-06	6.498426E-06	-3.037116E-05	-1.653743E-05	8.859541E-06	6.047196E-06	1.961898E-05	1.295747E-05
-1.183842E-05	-5.629306E-06	-7.282167E-06	-1.632796E-05	-1.803076E-05	-8.158156E-06	-3.664881E-06	-1.884884E-05	-3.60995E-06	6.498426E-06	-3.037116E-05	-1.653743E-05	8.859541E-06	6.047196E-06	1.961898E-05	1.295747E-05
-1.200828E-05	-8.186546E-06	-7.364448E-06	-1.655357E-05	-1.682765E-05	-8.8915E-06	-4.699609E-06	-1.921956E-05	-2.295199E-06	6.240236E-06	-3.003039E-05	-1.645768E-05	8.891447E-06	7.222246E-06	2.089731E-05	1.056899E-05
-1.200828E-05	-8.186546E-06	-7.364448E-06	-1.655357E-05	-1.682765E-05	-8.8915E-06	-4.699609E-06	-1.921956E-05	-2.295199E-06	6.240236E-06	-3.003039E-05	-1.645768E-05	8.891447E-06	7.222246E-06	2.089731E-05	1.056899E-05
-1.210421E-05	-1.229147E-05	-6.787693E-06	-1.561682E-05	-1.61563E-05	-9.399625E-06	-5.734849E-06	-2.000826E-05	-2.513287E-06	4.262771E-06	-3.101246E-05	-1.800422E-05	8.649852E-06	7.481931E-06	2.201552E-05	8.485267E-06
-1.210421E-05	-1.229147E-05	-6.787693E-06	-1.561682E-05	-1.61563E-05	-9.399625E-06	-5.734849E-06	-2.000826E-05	-2.513287E-06	4.262771E-06	-3.101246E-05	-1.800422E-05	8.649852E-06	7.481931E-06	2.201552E-05	8.485267E-06
-1.179832E-05	-1.691775E-05	-5.548355E-06	-1.504166E-05	-1.640937E-05	-9.414505E-06	-6.490479E-06	-2.178698E-05	-4.279968E-06	2.101547E-06	-3.129334E-05	-1.886861E-05	8.047962E-06	6.968708E-06	1.997494E-05	8.525824E-06
-1.179832E-05	-1.691775E-05	-5.548355E-06	-1.504166E-05	-1.640937E-05	-9.414505E-06	-6.490479E-06	-2.178698E-05	-4.279968E-06	2.101547E-06	-3.129334E-05	-1.886861E-05	8.047962E-06	6.968708E-06	1.997494E-05	8.525824E-06
-1.120025E-05	-2.015118E-05	-4.230393E-06	-1.505017E-05	-1.713639E-05	-8.759383E-06	-6.44536E-06	-2.366198E-05	-4.814159E-06	5.658853E-07	-3.006679E-05	-1.844435E-05	7.319345E-06	7.135713E-06	1.742246E-05	7.556694E-06
-1.120025E-05	-2.015118E-05	-4.230393E-06	-1.505017E-05	-1.713639E-05	-8.759383E-06	-6.44536E-06	-2.366198E-05	-4.814159E-06	5.658853E-07	-3.006679E-05	-1.844435E-05	7.319345E-06	7.135713E-06	1.742246E-05	7.556694E-06
-1.088962E-05	-1.927448E-05	-3.916044E-06	-1.457347E-05	-1.775467E-05	-7.590549E-06	-5.218921E-06	-2.392451E-05	-3.356275E-06	-4.855548E-07	-2.846557E-05	-1.879393E-05	5.882743E-06	7.283277E-06	1.779664E-05	6.610642E-06
-1.088962E-05	-1.927448E-05	-3.916044E-06	-1.457347E-05	-1.775467E-05	-7.590549E-06	-5.218921E-06	-2.392451E-05	-3.356275E-06	-4.855548E-07	-2.846557E-05	-1.879393E-05	5.882743E-06	7.283277E-06	1.779664E-05	6.610642E-06
-1.079602E-05	-1.445295E-05	-4.768868E-06	-1.340334E-05	-1.799605E-05	-6.802355E-06	-4.271705E-06	-2.24913E-05	-7.475683E-07	2.352427E-06	-2.828334E-05	-2.054718E-05	5.292824E-06	7.022199E-06	2.03962E-05	7.356787E-06
-1.079602E-05	-1.445295E-05	-4.768868E-06	-1.340334E-05	-1.799605E-05	-6.802355E-06	-4.271705E-06	-2.24913E-05	-7.475683E-07	2.352427E-06	-2.828334E-05	-2.054718E-05	5.292824E-06	7.022199E-06	2.03962E-05	7.356787E-06
-1.059283E-05	-7.302022E-06	-6.207458E-06	-1.235325E-05	-1.769304E-05	-7.391891E-06	-5.479389E-06	-2.056484E-05	8.073808E-07	5.48937E-06	-2.89885E-05	-2.128534E-05	5.54357E-06	7.206989E-06	2.25159E-05	7.991258E-06
-1.059283E-05	-7.302022E-06	-6.207458E-06	-1.235325E-05	-1.769304E-05	-7.391891E-06	-5.479389E-06	-2.056484E-05	8.073808E-07	5.48937E-06	-2.89885E-05	-2.128534E-05	5.54357E-06	7.206989E-06	2.25159E-05	7.991258E-06
-1.092256E-05	-2.437646E-06	-7.088548E-06	-1.239199E-05	-1.660227E-05	-9.011675E-06	-7.552723E-06	-1.990537E-05	2.150155E-06	4.689542E-06	-2.86583E-05	-2.211349E-05	6.488793E-06	6.692624E-06	2.137967E-05	6.999047E-06
-1.092256E-05	-2.437646E-06	-7.088548E-06	-1.239199E-05	-1.660227E-05	-9.011675E-06	-7.552723E-06	-1.990537E-05	2.150155E-06	4.689542E-06	-2.86583E-05	-2.211349E-05	6.488793E-06	6.692624E-06	2.137967E-05	6.999047E-06
-1.173995E-05	-3.630485E-06	-6.945801E-06	-1.409694E-05	-1.534989E-05	-9.939792E-06	-8.156778E-06	-2.128524E-05	1.935794E-06	2.680731E-06	-2.846483E-05	-2.21761E-05	7.302895E-06	6.212475E-06	1.949009E-05	6.338236E-06
-1.173995E-05	-3.630485E-06	-6.945801E-06	-1.409694E-05	-1.534989E-05	-9.939792E-06	-8.156778E-06	-2.128524E-05	1.935794E-06	2.680731E-06	-2.846483E-05	-2.21761E-05	7.302895E-06	6.212475E-06	1.949009E-05	6.338236E-06
-1.189598E-05	-5.158713E-06	-7.13504E-06	-1.597392E-05	-1.520761E-05	-9.366948E-06	-7.468208E-06	-2.264214E-05	-1.994994E-07	2.51229E-06	-2.847158E-05	-2.113036E-05	7.894228E-06	6.370448E-06	1.871558E-05	7.162106E-06
-1.189598E-05	-5.158713E-06	-7.13504E-06	-1.597392E-05	-1.520761E-05	-9.366948E-06	-7.468208E-06	-2.264214E-05	-1.994994E-07	2.51229E-06	-2.847158E-05	-2.113036E-05	7.894228E-06	6.370448E-06	1.871558E-05	7.162106E-06
-1.175987E-05	-2.68615E-06	-7.66919E-06	-1.580313E-05	-1.624466E-05	-8.826502E-06	-6.462308E-06	-2.289424E-05	-4.743234E-07	5.376749E-06	-2.783445E-05	-2.018467E-05	7.373279E-06	6.826318E-06	1.802416E-05	7.56202E-06
-1.175987E-05	-2.68615E-06	-7.66919E-06	-1.580313E-05	-1.624466E-05	-8.826502E-06	-6.462308E-06	-2.289424E-05	-4.743234E-07	5.376749E-06	-2.783445E-05	-2.018467E-05	7.373279E-06	6.826318E-06	1.802416E-05	7.56202E-06
-1.200628E-05	-1.316466E-07	-7.043836E-06	-1.415747E-05	-1.722059E-05	-9.423867E-06	-5.641703E-06	-2.335243E-05	-7.261094E-08	6.085115E-06	-2.769944E-05	-1.981231E-05	6.532131E-06	5.888543E-06	1.665473E-05	6.271498E-06
-1.200628E-05	-1.316466E-07	-7.043836E-06	-1.415747E-05	-1.722059E-05	-9.423867E-06	-5.641703E-06	-2.335243E-05	-7.261094E-08	6.085115E-06	-2.769944E-05	-1.981231E-05	6.532131E-06	5.888543E-06	1.665473E-05	6.271498E-06
-1.175123E-05	7.306923E-07	-5.530008E-06	-1.306898E-05	-1.72713E-05	-1.014626E-05	-5.719449E-06	-2.390456E-05	2.447677E-06	4.487979E-06	-2.758609E-05	-2.092427E-05	6.272955E-06	4.604486E-06	1.409111E-05	5.860557E-06
-1.175123E-05	7.306923E-07	-5.530008E-06	-1.306898E-05	-1.72713E-05	-1.014626E-05	-5.719449E-06	-2.390456E-05	2.447677E-06	4.487979E-06	-2.758609E-05	-2.092427E-05	6.272955E-06	4.604486E-06	1.409111E-05	5.860557E-06
-1.094055E-05	1.308489E-06	-4.316115E-06	-1.230109E-05	-1.700304E-05	-1.039125E-05	-6.670786E-06	-2.325054E-05	4.759723E-06	3.245883E-06	-2.772158E-05	-2.130565E-05	6.517628E-06	5.044501E-06	1.162437E-05	6.907356E-06
-1.094055E-05	1.308489E-06	-4.316115E-06	-1.230109E-05	-1.700304E-05	-1.039125E-05	-6.670786E-06	-2.325054E-05	4.759723E-06	3.245883E-06	-2.772158E-05	-2.130565E-05	6.517628E-06	5.044501E-06	1.162437E-05	6.907356E-06
-1.068535E-05	6.187827E-07	-4.220772E-06	-1.116344E-05	-1.720354E-05	-1.0432E-05	-7.333632E-06	-2.165118E-05	4.745887E-06	3.194036E-06	-2.788512E-05	-1.998529E-05	7.294956E-06	5.527251E-06	1.028785E-05	9.989768E-06
-1.068535E-05	6.187827E-07	-4.220772E-06	-1.116344E-05	-1.720354E-05	-1.0432E-05	-7.333632E-06	-2.165118E-05	4.745887E-06	3.194036E-06	-2.788512E-05	-1.998529E-05	7.294956E-06	5.527251E-06	1.028785E-05	9.989768E-06
-1.118018E-05	-3.39729E-06	-5.77006E-06	-1.101458E-05	-1.738722E-05	-9.948377E-06	-6.935411E-06	-2.073426E-05	2.77088E-06	3.678162E-06	-2.811468E-05	-1.815933E-05	8.301097E-06	6.213838E-06	1.156669E-05	1.303879E-05
-1.118018E-05	-3.39729E-06	-5.77006E-06	-1.101458E-05	-1.738722E-05	-9.948377E-06	-6.935411E-06	-2.073426E-05	2.77088E-06	3.678162E-06	-2.811468E-05	-1.815933E-05	8.301097E-06	6.213838E-06	1.156669E-05	1.303879E-05
-1.175934E-05	-8.901051E-06	-7.77124E-06	-1.204176E-05	-1.71539E-05	-8.616281E-06	-6.343908E-06	-2.102241E-05	1.998673E-07	3.895042E-06	-2.85656E-05	-1.732059E-05	8.20274E-06	5.912862E-06	1.32793E-05	1.319797E-05
-1.175934E-05	-8.901051E-06	-7.77124E-06	-1.204176E-05	-1.71539E-05	-8.616281E-06	-6.343908E-06	-2.102241E-05	1.998673E-07	3.895042E-06	-2.85656E-05	-1.732059E-05	8.20274E-06	5.912862E-06	1.32793E-05	1.319797E-05
-1.191446E-05	-1.119091E-05	-8.337446E-06	-1.244014E-05	-1.682767E-05	-6.990142E-06	-6.850169E-06	-2.151933E-05	-4.189491E-07	4.569777E-06	-2.884177E-05	-1.723437E-05	6.927678E-06	5.715061E-06	1.361621E-05	1.166604E-05
-1.191446E-05	-1.119091E-05	-8.337446E-06	-1.244014E-05	-1.682767E-05	-6.990142E-06	-6.850169E-06	-2.151933E-05	-4.189491E-07	4.569777E-06	-2.884177E-05	-1.723437E-05	6.927678E-06	5.715061E-06	1.361621E-05	1.166604E-05
-1.177672E-05	-8.797098E-06	-7.85066E-06	-1.164538E-05	-1.628571E-05	-6.127146E-06	-8.169133E-06	-2.15132E-05	-1.023947E-06	4.971077E-06	-2.994952E-05	-1.780368E-05	6.177557E-06	6.239916E-06	1.415464E-05	1.112521E-05
-1.177672E-05	-8.797098E-06	-7.85066E-06	-1.164538E-05	-1.628571E-05	-6.127146E-06	-8.169133E-06	-2.15132E-05	-1.023947E-06	4.971077E-06	-2.994952E-05	-1.780368E-05	6.177557E-06	6.239916E-06	1.415464E-05	1.112521E-05
-1.192688E-05	-4.603331E-06	-7.507063E-06	-1.044049E-05	-1.536687E-05	-6.434128E-06	-9.378315E-06	-2.105221E-05	-2.132188E-06	4.688275E-06	-3.14392E-05	-1.793619E-05	7.495157E-06	6.916466E-06	1.663602E-05	1.278247E-05
-1.192688E-05	-4.603331E-06	-7.507063E-06	-1.044049E-05	-1.536687E-05	-6.434128E-06	-9.378315E-06	-2.105221E-05	-2.132188E-06	4.688275E-06	-3.14392E-05	-1.793619E-05	7.495157E-06	6.916466E-06	1.663602E-05	1.278247E-05
-1.261933E-05	-2.202999E-06	-7.058474E-06	-9.588336E-06	-1.483153E-05	-7.04768E-06	-1.023632E-05	-2.067582E-05	-3.604839E-06	4.232133E-06	-3.219506E-05	-1.784804E-05	9.01215E-06	7.219825E-06	1.860336E-05	1.411987E-05
-1.261933E-05	-2.202999E-06	-7.058474E-06	-9.588336E-06	-1.483153E-05	-7.04768E-06	-1.023632E-05	-2.067582E-05	-3.604839E-06	4.232133E-06	-3.219506E-05	-1.784804E-05	9.01215E-06	7.219825E-06	1.860336E-05	1.411987E-05
-1.334711E-05	-2.616395E-06	-6.084264E-06	-9.59656E-06	-1.580595E-05	-6.698524E-06	-1.051747E-05	-2.115374E-05	-4.845323E-06	6.722041E-06	-3.237906E-05	-1.680499E-05	8.756307E-06	6.975742E-06	1.736215E-05	1.452992E-05
-1.334711E-05	-2.616395E-06	-6.084264E-06	-9.59656E-06	-1.580595E-05	-6.698524E-06	-1.051747E-05	-2.115374E-05	-4.845323E-06	6.722041E-06	-3.237906E-05	-1.680499E-05	8.756307E-06	6.975742E-06	1.736215E-05	1.452992E-05
-1.350397E-05	-3.992328E-06	-5.171858E-06	-1.011839E-05	-1.796592E-05	-5.087083E-06	-1.016303E-05	-2.219915E-05	-7.032586E-06	1.15513E-05	-3.198322E-05	-1.572646E-05	8.16452E-06	6.369863E-06	1.431752E-05	1.429167E-05
-1.350397E-05	-3.992328E-06	-5.171858E-06	-1.011839E-05	-1.796592E-05	-5.087083E-06	-1.016303E-05	-2.219915E-05	-7.032586E-06	1.15513E-05	-3.198322E-05	-1.572646E-05	8.16452E-06	6.369863E-06	1.431752E-05	1.429167E-05
-1.321993E-05	-3.670446E-06	-5.124209E-06	-1.012248E-05	-1.943656E-05	-3.353313E-06	-9.54495E-06	-2.220363E-05	-8.608817E-06	1.487416E-05	-3.07189E-05	-1.671381E-05	9.041915E-06	5.96438E-06	1.220109E-05	1.445414E-05
-1.321993E-05	-3.670446E-06	-5.124209E-06	-1.012248E-05	-1.943656E-05	-3.353313E-06	-9.54495E-06	-2.220363E-05	-8.608817E-06	1.487416E-05	-3.07189E-05	-1.671381E-05	9.041915E-06	5.96438E-06	1.220109E-05	1.445414E-05
-1.313554E-05	-3.302078E-07	-5.491316E-06	-9.462381E-06	-1.964084E-05	-3.053063E-06	-8.527772E-06	-2.035725E-05	-7.83105E-06	1.423016E-05	-2.974144E-05	-1.798438E-05	1.071909E-05	5.946764E-06	1.145752E-05	1.445963E-05
-1.313554E-05	-3.302078E-07	-5.491316E-06	-9.462381E-06	-1.964084E-05	-3.053063E-06	-8.527772E-06	-2.035725E-05	-7.83105E-06	1.423016E-05	-2.974144E-05	-1.798438E-05	1.071909E-05	5.946764E-06	1.145752E-05	1.445963E-05
-1.367183E-05	4.307316E-06	-5.147484E-06	-9.080184E-06	-1.949631E-05	-4.317154E-06	-7.033587E-06	-1.807661E-05	-5.799065E-06	1.072451E-05	-2.997941E-05	-1.829367E-05	1.091984E-05	5.197233E-06	1.182596E-05	1.460831E-05
-1.367183E-05	4.307316E-06	-5.147484E-06	-9.080184E-06	-1.949631E-05	-4.317154E-06	-7.033587E-06	-1.807661E-05	-5.799065E-06	1.072451E-05	-2.997941E-05	-1.829367E-05	1.091984E-05	5.197233E-06	1.182596E-05	1.460831E-05
-1.455385E-05	6.571844E-06	-4.17438E-06	-9.583776E-06	-1.92028E-05	-5.457663E-06	-6.10992E-06	-1.755817E-05	-4.058765E-06	5.058033E-06	-3.110209E-05	-1.772347E-05	9.874777E-06	4.775578E-06	1.262278E-05	1.491668E-05
-1.455385E-05	6.571844E-06	-4.17438E-06	-9.583776E-06	-1.92028E-05	-5.457663E-06	-6.10992E-06	-1.755817E-05	-4.058765E-06	5.058033E-06	-3.110209E-05	-1.772347E-05	9.874777E-06	4.775578E-06	1.262278E-05	1.491668E-05
-1.48705E-05	5.429185E-06	-3.481241E-06	-1.048028E-05	-1.90938E-05	-5.286407E-06	-6.565339E-06	-1.874489E-05	-2.898288E-06	-1.213594E-06	-3.173241E-05	-1.625296E-05	8.93893E-06	4.420111E-06	1.250365E-05	1.630243E-05
-1.48705E-05	5.429185E-06	-3.481241E-06	-1.048028E-05	-1.90938E-05	-5.286407E-06	-6.565339E-06	-1.874489E-05	-2.898288E-06	-1.213594E-06	-3.173241E-05	-1.625296E-05	8.93893E-06	4.420111E-06	1.250365E-05	1.630243E-05
-1.409471E-05	3.244348E-06	-3.700808E-06	-1.091636E-05	-1.989379E-05	-4.611345E-06	-7.620608E-06	-1.956829E-05	-2.963651E-06	-8.546464E-06	-3.203546E-05	-1.560222E-05	8.735393E-06	3.606394E-06	1.231433E-05	1.724652E-05
-1.409471E-05	3.244348E-06	-3.700808E-06	-1.091636E-05	-1.989379E-05	-4.611345E-06	-7.620608E-06	-1.956829E-05	-2.963651E-06	-8.546464E-06	-3.203546E-05	-1.560222E-05	8.735393E-06	3.606394E-06	1.231433E-05	1.724652E-05
-1.303578E-05	1.591698E-06	-5.008417E-06	-1.092731E-05	-2.07989E-05	-4.693073E-06	-7.737543E-06	-1.944599E-05	-2.651465E-06	-1.518012E-05	-3.396619E-05	-1.578071E-05	9.25736E-06	3.746417E-06	1.203967E-05	1.693168E-05
-1.303578E-05	1.591698E-06	-5.008417E-06	-1.092731E-05	-2.07989E-05	-4.693073E-06	-7.737543E-06	-1.944599E-05	-2.651465E-06	-1.518012E-05	-3.396619E-05	-1.578071E-05	9.25736E-06	3.746417E-06	1.203967E-05	1.693168E-05
-1.283177E-05	5.798245E-07	-6.538859E-06	-1.117805E-05	-2.050448E-05	-5.30206E-06	-6.481077E-06	-1.909153E-05	-3.844494E-07	-1.701995E-05	-3.424919E-05	-1.727307E-05	1.103705E-05	5.001231E-06	1.069707E-05	1.781567E-05
-1.283177E-05	5.798245E-07	-6.538859E-06	-1.117805E-05	-2.050448E-05	-5.30206E-06	-6.481077E-06	-1.909153E-05	-3.844494E-07	-1.701995E-05	-3.424919E-05	-1.727307E-05	1.103705E-05	5.001231E-06	1.069707E-05	1.781567E-05
-1.346621E-05	2.942298E-07	-6.978773E-06	-1.182913E-05	-1.924413E-05	-5.19241E-06	-5.042653E-06	-1.861123E-05	6.35268E-07	-1.751917E-05	-3.299064E-05	-2.011176E-05	1.173637E-05	5.840571E-06	8.755527E-06	1.839391E-05
-1.346621E-05	2.942298E-07	-6.978773E-06	-1.182913E-05	-1.924413E-05	-5.19241E-06	-5.042653E-06	-1.861123E-05	6.35268E-07	-1.751917E-05	-3.299064E-05	-2.011176E-05	1.173637E-05	5.840571E-06	8.755527E-06	1.839391E-05
-1.416329E-05	1.408506E-07	-6.143111E-06	-1.224335E-05	-1.827131E-05	-4.419511E-06	-4.275981E-06	-1.835435E-05	3.982482E-07	-1.828739E-05	-3.312668E-05	-1.990116E-05	1.075589E-05	5.764E-06	8.989992E-06	1.87882E-05
-1.416329E-05	1.408506E-07	-6.143111E-06	-1.224335E-05	-1.827131E-05	-4.419511E-06	-4.275981E-06	-1.835435E-05	3.982482E-07	-1.828739E-05	-3.312668E-05	-1.990116E-05	1.075589E-05	5.764E-06	8.989992E-06	1.87882E-05
-1.443237E-05	-3.955404E-07	-4.556266E-06	-1.187493E-05	-1.840536E-05	-3.973125E-06	-3.600488E-06	-1.864133E-05	3.088255E-07	-1.581485E-05	-3.301951E-05	-1.99725E-05	8.762116E-06	5.516924E-06	9.266732E-06	1.883902E-05
-1.443237E-05	-3.955404E-07	-4.556266E-06	-1.187493E-05	-1.840536E-05	-3.973125E-06	-3.600488E-06	-1.864133E-05	3.088255E-07	-1.581485E-05	-3.301951E-05	-1.99725E-05	8.762116E-06	5.516924E-06	9.266732E-06	1.883902E-05
-1.421764E-05	-3.526271E-07	-3.132494E-06	-1.128655E-05	-1.924835E-05	-4.058032E-06	-2.41976E-06	-1.843385E-05	6.008196E-07	-1.067299E-05	-3.123997E-05	-2.056477E-05	9.258961E-06	5.566445E-06	8.662531E-06	1.847234E-05
-1.421764E-05	-3.526271E-07	-3.132494E-06	-1.128655E-05	-1.924835E-05	-4.058032E-06	-2.41976E-06	-1.843385E-05	6.008196E-07	-1.067299E-05	-3.123997E-05	-2.056477E-05	9.258961E-06	5.566445E-06	8.662531E-06	1.847234E-05
-1.391155E-05	4.746332E-07	-2.524248E-06	-1.110135E-05	-1.96067E-05	-4.614983E-06	-9.88784E-07	-1.695939E-05	1.237695E-06	-5.559053E-06	-2.943015E-05	-1.869856E-05	1.077666E-05	4.748084E-06	9.290257E-06	1.77383E-05
-1.391155E-05	4.746332E-07	-2.524248E-06	-1.110135E-05	-1.96067E-05	-4.614983E-06	-9.88784E-07	-1.695939E-05	1.237695E-06	-5.559053E-06	-2.943015E-05	-1.869856E-05	1.077666E-05	4.748084E-06	9.290257E-06	1.77383E-05
-1.386293E-05	3.654557E-07	-1.939932E-06	-1.110736E-05	-1.895618E-05	-5.246321E-06	1.193784E-07	-1.518099E-05	6.065005E-07	-1.807747E-06	-3.019906E-05	-1.747888E-05	9.897602E-06	3.972226E-06	1.030043E-05	1.730837E-05
-1.386293E-05	3.654557E-07	-1.939932E-06	-1.110736E-05	-1.895618E-05	-5.246321E-06	1.193784E-07	-1.518099E-05	6.065005E-07	-1.807747E-06	-3.019906E-05	-1.747888E-05	9.897602E-06	3.972226E-06	1.030043E-05	1.730837E-05
-1.329659E-05	-1.043292E-06	-1.376257E-06	-1.145056E-05	-1.826484E-05	-5.04823E-06	2.689907E-07	-1.403321E-05	7.374622E-07	1.444912E-06	-3.086359E-05	-1.690746E-05	8.314786E-06	4.798213E-06	9.558245E-06	1.946896E-05
-1.329659E-05	-1.043292E-06	-1.376257E-06	-1.145056E-05	-1.826484E-05	-5.04823E-06	2.689907E-07	-1.403321E-05	7.374622E-07	1.444912E-06	-3.086359E-05	-1.690746E-05	8.314786E-06	4.798213E-06	9.558245E-06	1.946896E-05
-1.166159E-05	-2.143456E-06	-1.94754E-06	-1.261022E-05	-1.833821E-05	-4.088696E-06	-7.725645E-07	-1.300741E-05	2.214933E-06	4.085684E-06	-3.197317E-05	-1.768092E-05	7.835584E-06	6.194905E-06	7.82696E-06	2.121192E-05
-1.166159E-05	-2.143456E-06	-1.94754E-06	-1.261022E-05	-1.833821E-05	-4.088696E-06	-7.725645E-07	-1.300741E-05	2.214933E-06	4.085684E-06	-3.197317E-05	-1.768092E-05	7.835584E-06	6.194905E-06	7.82696E-06	2.121192E-05
-9.956578E-06	-2.09914E-06	-3.145794E-06	-1.435857E-05	-1.86057E-05	-3.381664E-06	-2.227645E-06	-1.117209E-05	1.876245E-06	3.514698E-06	-3.331586E-05	-1.904894E-05	7.508757E-06	5.696694E-06	7.786544E-06	2.24479E-05
-9.956578E-06	-2.09914E-06	-3.145794E-06	-1.435857E-05	-1.86057E-05	-3.381664E-06	-2.227645E-06	-1.117209E-05	1.876245E-06	3.514698E-06	-3.331586E-05	-1.904894E-05	7.508757E-06	5.696694E-06	7.786544E-06	2.24479E-05
-8.887061E-06	-1.602316E-06	-3.607417E-06	-1.597956E-05	-1.861608E-05	-3.323264E-06	-2.986556E-06	-8.768981E-06	-1.097034E-06	1.2686E-06	-3.414622E-05	-1.888729E-05	5.93136E-06	4.322986E-06	8.938076E-06	2.344572E-05
-8.887061E-06	-1.602316E-06	-3.607417E-06	-1.597956E-05	-1.861608E-05	-3.323264E-06	-2.986556E-06	-8.768981E-06	-1.097034E-06	1.2686E-06	-3.414622E-05	-1.888729E-05	5.93136E-06	4.322986E-06	8.938076E-06	2.344572E-05
-8.525527E-06	-1.36666E-06	-3.098762E-06	-1.657146E-05	-1.83232E-05	-3.747378E-06	-2.43153E-06	-7.622225E-06	-2.676273E-06	6.531038E-07	-3.358102E-05	-1.724335E-05	5.943268E-06	4.244737E-06	8.903715E-06	2.483095E-05
-8.525527E-06	-1.36666E-06	-3.098762E-06	-1.657146E-05	-1.83232E-05	-3.747378E-06	-2.43153E-06	-7.622225E-06	-2.676273E-06	6.531038E-07	-3.358102E-05	-1.724335E-05	5.943268E-06	4.244737E-06	8.903715E-06	2.483095E-05
-9.272348E-06	-1.18459E-06	-2.359551E-06	-1.535494E-05	-1.742723E-05	-4.672088E-06	-7.209173E-07	-9.41271E-06	-4.75191E-07	2.361711E-06	-3.163753E-05	-1.6448E-05	7.877932E-06	4.553931E-06	8.287576E-06	2.517135E-05
-9.272348E-06	-1.18459E-06	-2.359551E-06	-1.535494E-05	-1.742723E-05	-4.672088E-06	-7.209173E-07	-9.41271E-06	-4.75191E-07	2.361711E-06	-3.163753E-05	-1.6448E-05	7.877932E-06	4.553931E-06	8.287576E-06	2.517135E-05
-1.060646E-05	-1.099732E-06	-2.034689E-06	-1.279433E-05	-1.645246E-05	-5.875285E-06	9.027399E-07	-1.259627E-05	3.024659E-06	3.498923E-06	-3.099817E-05	-1.627516E-05	9.747851E-06	4.343207E-06	7.865803E-06	2.379047E-05
-1.060646E-05	-1.099732E-06	-2.034689E-06	-1.279433E-05	-1.645246E-05	-5.875285E-06	9.027399E-07	-1.259627E-05	3.024659E-06	3.498923E-06	-3.099817E-05	-1.627516E-05	9.747851E-06	4.343207E-06	7.865803E-06	2.379047E-05
-1.112195E-05	-1.490537E-06	-2.060304E-06	-1.080733E-05	-1.665187E-05	-6.61377E-06	1.095975E-06	-1.360897E-05	3.482276E-06	4.526034E-06	-3.223534E-05	-1.723233E-05	1.0835E-05	4.36646E-06	8.22055E-06	2.250532E-05
-1.112195E-05	-1.490537E-06	-2.060304E-06	-1.080733E-05	-1.665187E-05	-6.61377E-06	1.095975E-06	-1.360897E-05	3.482276E-06	4.526034E-06	-3.223534E-05	-1.723233E-05	1.0835E-05	4.36646E-06	8.22055E-06	2.250532E-05
-1.055292E-05	-1.827434E-06	-1.875201E-06	-1.094795E-05	-1.818722E-05	-6.354993E-06	7.169334E-08	-1.169627E-05	1.68394E-06	5.04436E-06	-3.358292E-05	-1.921252E-05	1.054301E-05	4.673511E-06	9.452524E-06	2.289925E-05
-1.055292E-05	-1.827434E-06	-1.875201E-06	-1.094795E-05	-1.818722E-05	-6.354993E-06	7.169334E-08	-1.169627E-05	1.68394E-06	5.04436E-06	-3.358292E-05	-1.921252E-05	1.054301E-05	4.673511E-06	9.452524E-06	2.289925E-05
-9.831008E-06	-1.732876E-06	-1.012364E-06	-1.219439E-05	-1.9687E-05	-5.875857E-06	-7.946068E-07	-8.886432E-06	7.744741E-07	5.285838E-06	-3.329016E-05	-2.026849E-05	9.090589E-06	4.594712E-06	1.097122E-05	2.417323E-05
-9.831008E-06	-1.732876E-06	-1.012364E-06	-1.219439E-05	-1.9687E-05	-5.875857E-06	-7.946068E-07	-8.886432E-06	7.744741E-07	5.285838E-06	-3.329016E-05	-2.026849E-05	9.090589E-06	4.594712E-06	1.097122E-05	2.417323E-05
-9.706907E-06	-1.822915E-06	3.036824E-07	-1.213059E-05	-1.977502E-05	-6.530433E-06	-6.325539E-07	-6.686072E-06	9.249988E-07	5.989982E-06	-3.328821E-05	-2.009885E-05	8.291217E-06	4.204944E-06	1.069508E-05	2.434491E-05
-9.706907E-06	-1.822915E-06	3.036824E-07	-1.213059E-05	-1.977502E-05	-6.530433E-06	-6.325539E-07	-6.686072E-06	9.249988E-07	5.989982E-06	-3.328821E-05	-2.009885E-05	8.291217E-06	4.204944E-06	1.069508E-05	2.434491E-05
-1.011583E-05	-2.406171E-06	1.15675E-06	-1.0694E-05	-1.875288E-05	-7.986314E-06	1.879427E-07	-5.065556E-06	9.77287E-07	5.855353E-06	-3.41124E-05	-1.949287E-05	9.142898E-06	4.538269E-06	9.104804E-06	2.340075E-05
-1.011583E-05	-2.406171E-06	1.15675E-06	-1.0694E-05	-1.875288E-05	-7.986314E-06	1.879427E-07	-5.065556E-06	9.77287E-07	5.855353E-06	-3.41124E-05	-1.949287E-05	9.142898E-06	4.538269E-06	9.104804E-06	2.340075E-05
-1.085733E-05	-3.560498E-06	9.044861E-07	-9.810296E-06	-1.783608E-05	-8.820849E-06	6.563299E-07	-3.63839E-06	6.313216E-08	5.35516E-06	-3.382822E-05	-1.96649E-05	9.162203E-06	5.282662E-06	9.933125E-06	2.261222E-05
-1.085733E-05	-3.560498E-06	9.044861E-07	-9.810296E-06	-1.783608E-05	-8.820849E-06	6.563299E-07	-3.63839E-06	6.313216E-08	5.35516E-06	-3.382822E-05	-1.96649E-05	9.162203E-06	5.282662E-06	9.933125E-06	2.261222E-05
-1.218387E-05	-5.434604E-06	-1.365105E-07	-1.058336E-05	-1.736063E-05	-8.727419E-06	3.532439E-07	-2.450558E-06	-9.494989E-07	5.574801E-06	-3.24366E-05	-2.03165E-05	7.003684E-06	5.641224E-06	1.323544E-05	2.270943E-05
-1.218387E-05	-5.434604E-06	-1.365105E-07	-1.058336E-05	-1.736063E-05	-8.727419E-06	3.532439E-07	-2.450558E-06	-9.494989E-07	5.574801E-06	-3.24366E-05	-2.03165E-05	7.003684E-06	5.641224E-06	1.323544E-05	2.270943E-05
-1.382976E-05	-6.720082E-06	-1.218106E-06	-1.294328E-05	-1.695988E-05	-8.52434E-06	6.624085E-08	-1.106258E-06	-1.719048E-06	6.082437E-06	-3.270015E-05	-2.113332E-05	4.65936E-06	5.85206E-06	1.547432E-05	2.260897E-05
-1.382976E-05	-6.720082E-06	-1.218106E-06	-1.294328E-05	-1.695988E-05	-8.52434E-06	6.624085E-08	-1.106258E-06	-1.719048E-06	6.082437E-06	-3.270015E-05	-2.113332E-05	4.65936E-06	5.85206E-06	1.547432E-05	2.260897E-05
-1.48291E-05	-5.731546E-06	-1.942197E-06	-1.550015E-05	-1.623578E-05	-8.908283E-06	3.865461E-07	6.467488E-07	-2.547112E-06	6.986965E-06	-3.345574E-05	-2.245456E-05	4.718261E-06	5.966876E-06	1.567803E-05	2.270994E-05
-1.48291E-05	-5.731546E-06	-1.942197E-06	-1.550015E-05	-1.623578E-05	-8.908283E-06	3.865461E-07	6.467488E-07	-2.547112E-06	6.986965E-06	-3.345574E-05	-2.245456E-05	4.718261E-06	5.966876E-06	1.567803E-05	2.270994E-05
-1.473665E-05	-3.253795E-06	-2.518115E-06	-1.592493E-05	-1.503693E-05	-9.559901E-06	4.033049E-07	1.684514E-06	-4.117886E-06	8.982204E-06	-3.256992E-05	-2.351932E-05	5.806325E-06	6.076125E-06	1.59936E-05	2.235557E-05
-1.473665E-05	-3.253795E-06	-2.518115E-06	-1.592493E-05	-1.503693E-05	-9.559901E-06	4.033049E-07	1.684514E-06	-4.117886E-06	8.982204E-06	-3.256992E-05	-2.351932E-05	5.806325E-06	6.076125E-06	1.59936E-05	2.235557E-05
-1.395141E-05	-1.68733E-06	-3.25711E-06	-1.350279E-05	-1.417224E-05	-9.508411E-06	-1.902847E-07	1.248252E-06	-4.206864E-06	9.691324E-06	-3.110846E-05	-2.244117E-05	5.517538E-06	5.647748E-06	1.620947E-05	2.10259E-05
-1.395141E-05	-1.68733E-06	-3.25711E-06	-1.350279E-05	-1.417224E-05	-9.508411E-06	-1.902847E-07	1.248252E-06	-4.206864E-06	9.691324E-06	-3.110846E-05	-2.244117E-05	5.517538E-06	5.647748E-06	1.620947E-05	2.10259E-05
-1.305247E-05	-1.73462E-06	-3.953004E-06	-9.998008E-06	-1.457446E-05	-8.445606E-06	-2.074857E-07	1.834738E-07	-3.926223E-06	8.4353E-06	-3.044106E-05	-2.086697E-05	5.37935E-06	4.759469E-06	1.616712E-05	1.836039E-05
-1.305247E-05	-1.73462E-06	-3.953004E-06	-9.998008E-06	-1.457446E-05	-8.445606E-06	-2.074857E-07	1.834738E-07	-3.926223E-06	8.4353E-06	-3.044106E-05	-2.086697E-05	5.37935E-06	4.759469E-06	1.616712E-05	1.836039E-05
-1.228524E-05	-1.159886E-06	-4.143539E-06	-7.594797E-06	-1.54016E-05	-7.290176E-06	5.539717E-07	-4.136891E-07	-4.459059E-06	6.484892E-06	-3.036279E-05	-1.898774E-05	6.526637E-06	4.010813E-06	1.71009E-05	1.670195E-05
-1.228524E-05	-1.159886E-06	-4.143539E-06	-7.594797E-06	-1.54016E-05	-7.290176E-06	5.539717E-07	-4.136891E-07	-4.459059E-06	6.484892E-06	-3.036279E-05	-1.898774E-05	6.526637E-06	4.010813E-06	1.71009E-05	1.670195E-05
-1.185439E-05	1.894767E-06	-3.953354E-06	-7.224089E-06	-1.51749E-05	-6.982267E-06	1.176664E-06	8.44233E-08	-4.295835E-06	5.063815E-06	-3.073927E-05	-1.680583E-05	7.817604E-06	4.511689E-06	1.723703E-05	1.655328E-05
-1.185439E-05	1.894767E-06	-3.953354E-06	-7.224089E-06	-1.51749E-05	-6.982267E-06	1.176664E-06	8.44233E-08	-4.295835E-06	5.063815E-06	-3.073927E-05	-1.680583E-05	7.817604E-06	4.511689E-06	1.723703E-05	1.655328E-05
-1.199439E-05	5.957138E-06	-4.00198E-06	-8.214851E-06	-1.399174E-05	-7.317503E-06	1.274477E-06	1.56376E-06	-2.393726E-06	5.9466E-06	-3.10115E-05	-1.614621E-05	7.326171E-06	6.416548E-06	1.421372E-05	1.682819E-05
-1.199439E-05	5.957138E-06	-4.00198E-06	-8.214851E-06	-1.399174E-05	-7.317503E-06	1.274477E-06	1.56376E-06	-2.393726E-06	5.9466E-06	-3.10115E-05	-1.614621E-05	7.326171E-06	6.416548E-06	1.421372E-05	1.682819E-05
-1.261042E-05	7.839997E-06	-3.497207E-06	-8.852133E-06	-1.300844E-05	-8.25669E-06	1.343601E-06	2.396934E-06	-1.42888E-06	8.157434E-06	-3.137084E-05	-1.754134E-05	6.550966E-06	7.234699E-06	9.958277E-06	1.574331E-05
-1.261042E-05	7.839997E-06	-3.497207E-06	-8.852133E-06	-1.300844E-05	-8.25669E-06	1.343601E-06	2.396934E-06	-1.42888E-06	8.157434E-06	-3.137084E-05	-1.754134E-05	6.550966E-06	7.234699E-06	9.958277E-06	1.574331E-05
-1.337614E-05	5.926429E-06	-1.186834E-06	-8.026173E-06	-1.264475E-05	-9.9086E-06	1.905268E-06	1.213784E-06	-3.513613E-06	6.347655E-06	-3.168193E-05	-1.769876E-05	6.541425E-06	6.093571E-06	7.853418E-06	1.439027E-05
-1.337614E-05	5.926429E-06	-1.186834E-06	-8.026173E-06	-1.264475E-05	-9.9086E-06	1.905268E-06	1.213784E-06	-3.513613E-06	6.347655E-06	-3.168193E-05	-1.769876E-05	6.541425E-06	6.093571E-06	7.853418E-06	1.439027E-05
-1.347282E-05	2.431289E-06	7.192008E-07	-6.646062E-06	-1.2396E-05	-1.023132E-05	2.465655E-06	-3.219079E-07	-5.39926E-06	3.29957E-06	-3.081264E-05	-1.782293E-05	6.2847E-06	6.007846E-06	1.090201E-05	1.314894E-05
-1.347282E-05	2.431289E-06	7.192008E-07	-6.646062E-06	-1.2396E-05	-1.023132E-05	2.465655E-06	-3.219079E-07	-5.39926E-06	3.29957E-06	-3.081264E-05	-1.782293E-05	6.2847E-06	6.007846E-06	1.090201E-05	1.314894E-05
-1.250352E-05	4.829749E-07	8.486899E-08	-6.110704E-06	-1.251931E-05	-8.617933E-06	3.014093E-06	-1.737538E-07	-4.003398E-06	3.886555E-06	-3.028726E-05	-1.907556E-05	6.937565E-06	7.37352E-06	1.367644E-05	1.206604E-05
-1.250352E-05	4.829749E-07	8.486899E-08	-6.110704E-06	-1.251931E-05	-8.617933E-06	3.014093E-06	-1.737538E-07	-4.003398E-06	3.886555E-06	-3.028726E-05	-1.907556E-05	6.937565E-06	7.37352E-06	1.367644E-05	1.206604E-05
-1.168285E-05	-4.112579E-08	-6.821228E-07	-6.30927E-06	-1.352585E-05	-8.122001E-06	4.478542E-06	6.785443E-07	-2.362337E-06	4.819274E-06	-3.059537E-05	-1.922202E-05	7.587938E-06	9.153464E-06	1.193118E-05	1.165815E-05
-1.168285E-05	-4.112579E-08	-6.821228E-07	-6.30927E-06	-1.352585E-05	-8.122001E-06	4.478542E-06	6.785443E-07	-2.362337E-06	4.819274E-06	-3.059537E-05	-1.922202E-05	7.587938E-06	9.153464E-06	1.193118E-05	1.165815E-05
-1.184724E-05	-3.946234E-07	-1.507469E-07	-6.694089E-06	-1.435831E-05	-8.73004E-06	5.976643E-06	7.189466E-07	-1.523553E-06	5.512592E-06	-3.08415E-05	-1.768542E-05	6.540504E-06	1.025249E-05	7.785476E-06	1.1331E-05
-1.184724E-05	-3.946234E-07	-1.507469E-07	-6.694089E-06	-1.435831E-05	-8.73004E-06	5.976643E-06	7.189466E-07	-1.523553E-06	5.512592E-06	-3.08415E-05	-1.768542E-05	6.540504E-06	1.025249E-05	7.785476E-06	1.1331E-05
-1.220341E-05	-6.603556E-07	-5.576539E-08	-6.879832E-06	-1.422008E-05	-7.769918E-06	6.122064E-06	-7.228734E-08	5.088749E-08	5.994989E-06	-3.180106E-05	-1.644975E-05	4.946549E-06	8.13275E-06	5.351275E-06	1.123669E-05
-1.220341E-05	-6.603556E-07	-5.576539E-08	-6.879832E-06	-1.422008E-05	-7.769918E-06	6.122064E-06	-7.228734E-08	5.088749E-08	5.994989E-06	-3.180106E-05	-1.644975E-05	4.946549E-06	8.13275E-06	5.351275E-06	1.123669E-05
-1.196676E-05	-1.029939E-06	-8.689604E-07	-6.084966E-06	-1.396212E-05	-5.844788E-06	5.677486E-06	-1.213655E-06	-5.442698E-07	6.414202E-06	-3.227643E-05	-1.76024E-05	4.811423E-06	5.291749E-06	6.483619E-06	1.103928E-05
-1.196676E-05	-1.029939E-06	-8.689604E-07	-6.084966E-06	-1.396212E-05	-5.844788E-06	5.677486E-06	-1.213655E-06	-5.442698E-07	6.414202E-06	-3.227643E-05	-1.76024E-05	4.811423E-06	5.291749E-06	6.483619E-06	1.103928E-05
-1.121055E-05	-1.998812E-06	-1.669863E-06	-4.142914E-06	-1.408759E-05	-4.728941E-06	5.569305E-06	-1.939345E-06	-2.693056E-06	8.024707E-06	-3.290666E-05	-1.805917E-05	5.82095E-06	5.227557E-06	8.490209E-06	1.189957E-05
-1.121055E-05	-1.998812E-06	-1.669863E-06	-4.142914E-06	-1.408759E-05	-4.728941E-06	5.569305E-06	-1.939345E-06	-2.693056E-06	8.024707E-06	-3.290666E-05	-1.805917E-05	5.82095E-06	5.227557E-06	8.490209E-06	1.189957E-05
-1.060986E-05	-3.561417E-06	-2.242813E-06	-2.229385E-06	-1.420575E-05	-4.567225E-06	5.383913E-06	-2.091884E-06	-2.869623E-06	7.952851E-06	-3.288954E-05	-1.647356E-05	6.276028E-06	7.88546E-06	9.078179E-06	1.382493E-05
-1.060986E-05	-3.561417E-06	-2.242813E-06	-2.229385E-06	-1.420575E-05	-4.567225E-06	5.383913E-06	-2.091884E-06	-2.869623E-06	7.952851E-06	-3.288954E-05	-1.647356E-05	6.276028E-06	7.88546E-06	9.078179E-06	1.382493E-05
-1.102682E-05	-5.596139E-06	-3.046537E-06	-1.856869E-06	-1.405557E-05	-4.915019E-06	4.446483E-06	-2.788517E-06	-2.569567E-06	6.818453E-06	-3.186861E-05	-1.487165E-05	6.422165E-06	9.63289E-06	8.852218E-06	1.460053E-05
-1.102682E-05	-5.596139E-06	-3.046537E-06	-1.856869E-06	-1.405557E-05	-4.915019E-06	4.446483E-06	-2.788517E-06	-2.569567E-06	6.818453E-06	-3.186861E-05	-1.487165E-05	6.422165E-06	9.63289E-06	8.852218E-06	1.460053E-05
-1.255488E-05	-8.437027E-06	-4.125696E-06	-3.443065E-06	-1.367721E-05	-5.538389E-06	3.058253E-06	-3.981117E-06	-2.907642E-06	5.938935E-06	-3.141758E-05	-1.459261E-05	6.671208E-06	9.197985E-06	9.103155E-06	1.39205E-05
-1.255488E-05	-8.437027E-06	-4.125696E-06	-3.443065E-06	-1.367721E-05	-5.538389E-06	3.058253E-06	-3.981117E-06	-2.907642E-06	5.938935E-06	-3.141758E-05	-1.459261E-05	6.671208E-06	9.197985E-06	9.103155E-06	1.39205E-05
-1.413906E-05	-1.144078E-05	-4.69258E-06	-5.792179E-06	-1.331729E-05	-6.528434E-06	2.330173E-06	-4.375497E-06	-1.613076E-06	5.069219E-06	-3.032009E-05	-1.495557E-05	7.904321E-06	8.090833E-06	8.248248E-06	1.356624E-05
-1.413906E-05	-1.144078E-05	-4.69258E-06	-5.792179E-06	-1.331729E-05	-6.528434E-06	2.330173E-06	-4.375497E-06	-1.613076E-06	5.069219E-06	-3.032009E-05	-1.495557E-05	7.904321E-06	8.090833E-06	8.248248E-06	1.356624E-05
-1.46229E-05	-1.218902E-05	-3.929071E-06	-7.155E-06	-1.313902E-05	-7.985968E-06	2.55539E-06	-4.349024E-06	6.064549E-07	4.141566E-06	-2.840999E-05	-1.552507E-05	8.457777E-06	7.311361E-06	6.338581E-06	1.453545E-05
-1.46229E-05	-1.218902E-05	-3.929071E-06	-7.155E-06	-1.313902E-05	-7.985968E-06	2.55539E-06	-4.349024E-06	6.064549E-07	4.141566E-06	-2.840999E-05	-1.552507E-05	8.457777E-06	7.311361E-06	6.338581E-06	1.453545E-05
-1.389591E-05	-1.007308E-05	-2.201052E-06	-7.193558E-06	-1.277282E-05	-9.260587E-06	2.590489E-06	-4.958433E-06	1.853902E-06	4.685414E-06	-2.77599E-05	-1.696665E-05	7.5803E-06	7.143484E-06	5.686631E-06	1.540273E-05
-1.389591E-05	-1.007308E-05	-2.201052E-06	-7.193558E-06	-1.277282E-05	-9.260587E-06	2.590489E-06	-4.958433E-06	1.853902E-06	4.685414E-06	-2.77599E-05	-1.696665E-05	7.5803E-06	7.143484E-06	5.686631E-06	1.540273E-05
-1.284545E-05	-7.285222E-06	-8.058083E-07	-7.465712E-06	-1.194658E-05	-9.474969E-06	1.380744E-06	-5.58278E-06	1.714542E-06	6.618534E-06	-2.938775E-05	-1.788034E-05	6.594816E-06	7.060607E-06	6.678285E-06	1.522527E-05
-1.284545E-05	-7.285222E-06	-8.058083E-07	-7.465712E-06	-1.194658E-05	-9.474969E-06	1.380744E-06	-5.58278E-06	1.714542E-06	6.618534E-06	-2.938775E-05	-1.788034E-05	6.594816E-06	7.060607E-06	6.678285E-06	1.522527E-05
-1.236602E-05	-4.887796E-06	-2.598505E-07	-9.461716E-06	-1.150328E-05	-9.145375E-06	-3.244168E-07	-4.817247E-06	1.75473E-06	7.557614E-06	-3.121279E-05	-1.762932E-05	7.189775E-06	7.154487E-06	6.745249E-06	1.481109E-05
-1.236602E-05	-4.887796E-06	-2.598505E-07	-9.461716E-06	-1.150328E-05	-9.145375E-06	-3.244168E-07	-4.817247E-06	1.75473E-06	7.557614E-06	-3.121279E-05	-1.762932E-05	7.189775E-06	7.154487E-06	6.745249E-06	1.481109E-05
-1.246911E-05	-3.399519E-06	-1.544899E-07	-1.246098E-05	-1.227957E-05	-9.293705E-06	-1.090856E-06	-3.168682E-06	2.842499E-06	6.214948E-06	-3.112796E-05	-1.69814E-05	8.110357E-06	7.278955E-06	5.606854E-06	1.532103E-05
-1.246911E-05	-3.399519E-06	-1.544899E-07	-1.246098E-05	-1.227957E-05	-9.293705E-06	-1.090856E-06	-3.168682E-06	2.842499E-06	6.214948E-06	-3.112796E-05	-1.69814E-05	8.110357E-06	7.278955E-06	5.606854E-06	1.532103E-05
-1.228973E-05	-4.518912E-06	-1.291658E-07	-1.430951E-05	-1.363567E-05	-9.579804E-06	-7.49971E-07	-2.979102E-06	5.006746E-06	3.400597E-06	-2.971436E-05	-1.631242E-05	7.940655E-06	6.873273E-06	5.157464E-06	1.624317E-05
-1.228973E-05	-4.518912E-06	-1.291658E-07	-1.430951E-05	-1.363567E-05	-9.579804E-06	-7.49971E-07	-2.979102E-06	5.006746E-06	3.400597E-06	-2.971436E-05	-1.631242E-05	7.940655E-06	6.873273E-06	5.157464E-06	1.624317E-05
-1.119714E-05	-7.91535E-06	1.862932E-08	-1.474621E-05	-1.429482E-05	-9.036346E-06	7.173824E-08	-4.233495E-06	6.85055E-06	1.376344E-06	-2.989047E-05	-1.625917E-05	6.788874E-06	7.1254E-06	5.985697E-06	1.679857E-05
-1.119714E-05	-7.91535E-06	1.862932E-08	-1.474621E-05	-1.429482E-05	-9.036346E-06	7.173824E-08	-4.233495E-06	6.85055E-06	1.376344E-06	-2.989047E-05	-1.625917E-05	6.788874E-06	7.1254E-06	5.985697E-06	1.679857E-05
-9.755341E-06	-1.060608E-05	1.478512E-07	-1.521234E-05	-1.405022E-05	-7.742551E-06	7.095604E-07	-4.499102E-06	6.393184E-06	1.905737E-06	-3.105437E-05	-1.61844E-05	7.016818E-06	9.360477E-06	6.627908E-06	1.670209E-05
-9.755341E-06	-1.060608E-05	1.478512E-07	-1.521234E-05	-1.405022E-05	-7.742551E-06	7.095604E-07	-4.499102E-06	6.393184E-06	1.905737E-06	-3.105437E-05	-1.61844E-05	7.016818E-06	9.360477E-06	6.627908E-06	1.670209E-05
-9.141341E-06	-1.054395E-05	-2.461054E-07	-1.560761E-05	-1.409022E-05	-6.911714E-06	7.338364E-07	-3.198336E-06	3.804244E-06	3.794313E-06	-3.148984E-05	-1.577552E-05	8.202957E-06	1.067448E-05	6.849868E-06	1.663702E-05
-9.141341E-06	-1.054395E-05	-2.461054E-07	-1.560761E-05	-1.409022E-05	-6.911714E-06	7.338364E-07	-3.198336E-06	3.804244E-06	3.794313E-06	-3.148984E-05	-1.577552E-05	8.202957E-06	1.067448E-05	6.849868E-06	1.663702E-05
-9.593132E-06	-8.760887E-06	-9.728911E-07	-1.466675E-05	-1.491472E-05	-7.078081E-06	6.53481E-07	-1.882723E-06	2.620679E-06	3.914419E-06	-3.160796E-05	-1.532929E-05	7.931674E-06	9.496595E-06	7.281514E-06	1.695852E-05
-9.593132E-06	-8.760887E-06	-9.728911E-07	-1.466675E-05	-1.491472E-05	-7.078081E-06	6.53481E-07	-1.882723E-06	2.620679E-06	3.914419E-06	-3.160796E-05	-1.532929E-05	7.931674E-06	9.496595E-06	7.281514E-06	1.695852E-05
-1.027936E-05	-7.647966E-06	-1.604232E-06	-1.224433E-05	-1.564676E-05	-7.310495E-06	1.009923E-06	-2.047241E-06	3.179505E-06	3.945056E-06	-3.134578E-05	-1.393715E-05	8.331646E-06	6.715801E-06	9.133526E-06	1.607796E-05
-1.027936E-05	-7.647966E-06	-1.604232E-06	-1.224433E-05	-1.564676E-05	-7.310495E-06	1.009923E-06	-2.047241E-06	3.179505E-06	3.945056E-06	-3.134578E-05	-1.393715E-05	8.331646E-06	6.715801E-06	9.133526E-06	1.607796E-05
-1.070787E-05	-7.565971E-06	-3.011598E-06	-9.784751E-06	-1.610209E-05	-6.758422E-06	8.333774E-07	-3.907929E-06	1.047786E-06	4.763618E-06	-3.035021E-05	-1.254565E-05	9.045521E-06	6.352394E-06	1.025335E-05	1.621912E-05
-1.070787E-05	-7.565971E-06	-3.011598E-06	-9.784751E-06	-1.610209E-05	-6.758422E-06	8.333774E-07	-3.907929E-06	1.047786E-06	4.763618E-06	-3.035021E-05	-1.254565E-05	9.045521E-06	6.352394E-06	1.025335E-05	1.621912E-05
-1.091844E-05	-7.096806E-06	-5.389127E-06	-8.998495E-06	-1.655419E-05	-5.675295E-06	-5.414409E-07	-5.78405E-06	-3.165187E-06	4.613329E-06	-2.979975E-05	-1.234487E-05	8.344631E-06	9.112639E-06	8.022694E-06	1.666964E-05
-1.091844E-05	-7.096806E-06	-5.389127E-06	-8.998495E-06	-1.655419E-05	-5.675295E-06	-5.414409E-07	-5.78405E-06	-3.165187E-06	4.613329E-06	-2.979975E-05	-1.234487E-05	8.344631E-06	9.112639E-06	8.022694E-06	1.666964E-05
-1.094107E-05	-5.691004E-06	-6.983205E-06	-1.000529E-05	-1.662614E-05	-4.880116E-06	-1.921735E-06	-5.790385E-06	-6.641641E-06	4.149109E-06	-3.025728E-05	-1.279782E-05	7.030737E-06	1.089371E-05	6.525338E-06	1.470259E-05
-1.094107E-05	-5.691004E-06	-6.983205E-06	-1.000529E-05	-1.662614E-05	-4.880116E-06	-1.921735E-06	-5.790385E-06	-6.641641E-06	4.149109E-06	-3.025728E-05	-1.279782E-05	7.030737E-06	1.089371E-05	6.525338E-06	1.470259E-05
-1.171163E-05	-3.616401E-06	-6.904414E-06	-1.143972E-05	-1.630478E-05	-4.70583E-06	-2.123182E-06	-5.461371E-06	-6.223732E-06	5.09845E-06	-3.048363E-05	-1.303182E-05	7.208154E-06	9.488597E-06	8.287652E-06	1.434936E-05
-1.171163E-05	-3.616401E-06	-6.904414E-06	-1.143972E-05	-1.630478E-05	-4.70583E-06	-2.123182E-06	-5.461371E-06	-6.223732E-06	5.09845E-06	-3.048363E-05	-1.303182E-05	7.208154E-06	9.488597E-06	8.287652E-06	1.434936E-05
-1.429974E-05	-7.814357E-07	-5.737048E-06	-1.195223E-05	-1.593092E-05	-4.988703E-06	-8.929613E-07	-7.898014E-06	-2.539909E-06	5.291809E-06	-2.946695E-05	-1.269632E-05	7.779995E-06	5.972576E-06	1.100214E-05	1.647659E-05
-1.429974E-05	-7.814357E-07	-5.737048E-06	-1.195223E-05	-1.593092E-05	-4.988703E-06	-8.929613E-07	-7.898014E-06	-2.539909E-06	5.291809E-06	-2.946695E-05	-1.269632E-05	7.779995E-06	5.972576E-06	1.100214E-05	1.647659E-05
-1.641654E-05	1.563592E-06	-4.464398E-06	-1.06495E-05	-1.547202E-05	-5.638136E-06	9.145645E-07	-1.157421E-05	-9.460941E-07	5.395327E-06	-2.799833E-05	-1.267842E-05	9.018214E-06	4.508171E-06	1.162286E-05	1.693026E-05
-1.641654E-05	1.563592E-06	-4.464398E-06	-1.06495E-05	-1.547202E-05	-5.638136E-06	9.145645E-07	-1.157421E-05	-9.460941E-07	5.395327E-06	-2.799833E-05	-1.267842E-05	9.018214E-06	4.508171E-06	1.162286E-05	1.693026E-05
-1.52615E-05	1.618638E-06	-3.97438E-06	-8.047815E-06	-1.495801E-05	-6.163642E-06	1.520354E-06	-1.266518E-05	-1.360883E-06	6.144853E-06	-2.75653E-05	-1.278343E-05	8.806018E-06	5.645837E-06	1.024386E-05	1.554146E-05
-1.52615E-05	1.618638E-06	-3.97438E-06	-8.047815E-06	-1.495801E-05	-6.163642E-06	1.520354E-06	-1.266518E-05	-1.360883E-06	6.144853E-06	-2.75653E-05	-1.278343E-05	8.806018E-06	5.645837E-06	1.024386E-05	1.554146E-05
-1.28958E-05	5.35099E-07	-4.127608E-06	-6.165286E-06	-1.447127E-05	-6.007004E-06	3.645977E-07	-1.133972E-05	-1.805056E-06	5.46065E-06	-2.82889E-05	-1.422572E-05	6.467702E-06	6.901106E-06	9.311715E-06	1.347608E-05
-1.28958E-05	5.35099E-07	-4.127608E-06	-6.165286E-06	-1.447127E-05	-6.007004E-06	3.645977E-07	-1.133972E-05	-1.805056E-06	5.46065E-06	-2.82889E-05	-1.422572E-05	6.467702E-06	6.901106E-06	9.311715E-06	1.347608E-05
-1.218217E-05	-4.319959E-07	-4.664613E-06	-5.525093E-06	-1.397797E-05	-5.669606E-06	-1.510807E-06	-9.927089E-06	-1.601609E-06	2.557473E-06	-2.88081E-05	-1.514863E-05	5.299674E-06	7.169593E-06	9.493802E-06	1.411164E-05
-1.218217E-05	-4.319959E-07	-4.664613E-06	-5.525093E-06	-1.397797E-05	-5.669606E-06	-1.510807E-06	-9.927089E-06	-1.601609E-06	2.557473E-06	-2.88081E-05	-1.514863E-05	5.299674E-06	7.169593E-06	9.493802E-06	1.411164E-05
-1.278567E-05	-1.811594E-06	-5.413141E-06	-5.558945E-06	-1.374459E-05	-6.040105E-06	-3.044704E-06	-9.797619E-06	-3.278396E-06	-3.644027E-08	-2.921413E-05	-1.547678E-05	6.359269E-06	6.646788E-06	9.347592E-06	1.507998E-05
-1.278567E-05	-1.811594E-06	-5.413141E-06	-5.558945E-06	-1.374459E-05	-6.040105E-06	-3.044704E-06	-9.797619E-06	-3.278396E-06	-3.644027E-08	-2.921413E-05	-1.547678E-05	6.359269E-06	6.646788E-06	9.347592E-06	1.507998E-05
-1.369331E-05	-3.12438E-06	-5.489836E-06	-6.67338E-06	-1.393059E-05	-6.943099E-06	-3.748906E-06	-1.132142E-05	-4.916385E-06	1.029301E-06	-2.970115E-05	-1.544012E-05	7.807941E-06	5.504608E-06	8.035095E-06	1.384638E-05
-1.369331E-05	-3.12438E-06	-5.489836E-06	-6.67338E-06	-1.393059E-05	-6.943099E-06	-3.748906E-06	-1.132142E-05	-4.916385E-06	1.029301E-06	-2.970115E-05	-1.544012E-05	7.807941E-06	5.504608E-06	8.035095E-06	1.384638E-05
-1.422345E-05	-4.025579E-06	-4.974459E-06	-8.095233E-06	-1.391436E-05	-7.020988E-06	-3.991439E-06	-1.276206E-05	-3.809325E-06	3.554391E-06	-3.102165E-05	-1.602491E-05	7.927676E-06	3.955475E-06	5.594535E-06	1.323931E-05
-1.422345E-05	-4.025579E-06	-4.974459E-06	-8.095233E-06	-1.391436E-05	-7.020988E-06	-3.991439E-06	-1.276206E-05	-3.809325E-06	3.554391E-06	-3.102165E-05	-1.602491E-05	7.927676E-06	3.955475E-06	5.594535E-06	1.323931E-05
-1.379759E-05	-5.878879E-06	-4.931647E-06	-8.467545E-06	-1.346131E-05	-5.989302E-06	-4.625933E-06	-1.229837E-05	-3.396812E-06	4.568938E-06	-3.205164E-05	-1.816244E-05	7.409131E-06	3.931698E-06	4.84971E-06	1.308415E-05
-1.379759E-05	-5.878879E-06	-4.931647E-06	-8.467545E-06	-1.346131E-05	-5.989302E-06	-4.625933E-06	-1.229837E-05	-3.396812E-06	4.568938E-06	-3.205164E-05	-1.816244E-05	7.409131E-06	3.931698E-06	4.84971E-06	1.308415E-05
-1.280075E-05	-9.375112E-06	-5.24265E-06	-8.674786E-06	-1.357446E-05	-5.572833E-06	-5.952886E-06	-1.13463E-05	-4.607478E-06	2.515088E-06	-3.249048E-05	-2.030018E-05	6.766915E-06	4.746204E-06	6.728649E-06	1.226963E-05
-1.280075E-05	-9.375112E-06	-5.24265E-06	-8.674786E-06	-1.357446E-05	-5.572833E-06	-5.952886E-06	-1.13463E-05	-4.607478E-06	2.515088E-06	-3.249048E-05	-2.030018E-05	6.766915E-06	4.746204E-06	6.728649E-06	1.226963E-05
-1.217266E-05	-1.188562E-05	-4.746709E-06	-9.81446E-06	-1.458602E-05	-5.879527E-06	-7.70517E-06	-1.193015E-05	-5.247406E-06	6.028752E-07	-3.146477E-05	-2.120845E-05	5.764462E-06	5.04529E-06	8.820803E-06	1.16526E-05
-1.217266E-05	-1.188562E-05	-4.746709E-06	-9.81446E-06	-1.458602E-05	-5.879527E-06	-7.70517E-06	-1.193015E-05	-5.247406E-06	6.028752E-07	-3.146477E-05	-2.120845E-05	5.764462E-06	5.04529E-06	8.820803E-06	1.16526E-05
-1.213816E-05	-9.996164E-06	-3.308695E-06	-1.13921E-05	-1.527479E-05	-5.470869E-06	-9.341068E-06	-1.381648E-05	-4.580211E-06	8.742791E-07	-2.937897E-05	-2.076453E-05	6.156589E-06	4.699108E-06	1.016416E-05	1.111271E-05
-1.213816E-05	-9.996164E-06	-3.308695E-06	-1.13921E-05	-1.527479E-05	-5.470869E-06	-9.341068E-06	-1.381648E-05	-4.580211E-06	8.742791E-07	-2.937897E-05	-2.076453E-05	6.156589E-06	4.699108E-06	1.016416E-05	1.111271E-05
-1.2074E-05	-4.674554E-06	-2.536406E-06	-1.258997E-05	-1.469169E-05	-5.290718E-06	-1.013406E-05	-1.576373E-05	-4.176371E-06	9.179512E-08	-2.87751E-05	-2.113862E-05	8.273042E-06	5.351077E-06	1.040323E-05	1.056057E-05
-1.2074E-05	-4.674554E-06	-2.536406E-06	-1.258997E-05	-1.469169E-05	-5.290718E-06	-1.013406E-05	-1.576373E-05	-4.176371E-06	9.179512E-08	-2.87751E-05	-2.113862E-05	8.273042E-06	5.351077E-06	1.040323E-05	1.056057E-05
-1.147515E-05	-6.072581E-07	-3.195091E-06	-1.227578E-05	-1.366009E-05	-6.488434E-06	-9.882729E-06	-1.691314E-05	-3.491224E-06	-2.094001E-06	-2.971595E-05	-2.160785E-05	9.817082E-06	6.718064E-06	1.012185E-05	1.051832E-05
-1.147515E-05	-6.072581E-07	-3.195091E-06	-1.227578E-05	-1.366009E-05	-6.488434E-06	-9.882729E-06	-1.691314E-05	-3.491224E-06	-2.094001E-06	-2.971595E-05	-2.160785E-05	9.817082E-06	6.718064E-06	1.012185E-05	1.051832E-05
-1.077565E-05	-1.221504E-06	-3.916651E-06	-9.948979E-06	-1.359659E-05	-8.002987E-06	-9.172443E-06	-1.716991E-05	-2.731724E-06	-3.018418E-06	-3.101669E-05	-2.168975E-05	1.063607E-05	7.396009E-06	9.890284E-06	1.033359E-05
-1.077565E-05	-1.221504E-06	-3.916651E-06	-9.948979E-06	-1.359659E-05	-8.002987E-06	-9.172443E-06	-1.716991E-05	-2.731724E-06	-3.018418E-06	-3.101669E-05	-2.168975E-05	1.063607E-05	7.396009E-06	9.890284E-06	1.033359E-05
-1.100895E-05	-5.573324E-06	-3.75609E-06	-7.968857E-06	-1.407814E-05	-9.157038E-06	-8.61876E-06	-1.702196E-05	-2.241097E-06	-8.111788E-07	-3.202056E-05	-2.18561E-05	1.120577E-05	7.782238E-06	1.038158E-05	1.060269E-05
-1.100895E-05	-5.573324E-06	-3.75609E-06	-7.968857E-06	-1.407814E-05	-9.157038E-06	-8.61876E-06	-1.702196E-05	-2.241097E-06	-8.111788E-07	-3.202056E-05	-2.18561E-05	1.120577E-05	7.782238E-06	1.038158E-05	1.060269E-05
-1.189045E-05	-9.897216E-06	-3.712063E-06	-8.680382E-06	-1.412194E-05	-9.890444E-06	-8.105406E-06	-1.693411E-05	-2.285757E-06	1.732216E-06	-3.306452E-05	-2.195197E-05	1.064396E-05	7.982769E-06	1.161473E-05	1.162351E-05
-1.189045E-05	-9.897216E-06	-3.712063E-06	-8.680382E-06	-1.412194E-05	-9.890444E-06	-8.105406E-06	-1.693411E-05	-2.285757E-06	1.732216E-06	-3.306452E-05	-2.195197E-05	1.064396E-05	7.982769E-06	1.161473E-05	1.162351E-05
-1.171561E-05	-1.149492E-05	-5.046196E-06	-1.0716E-05	-1.438916E-05	-9.609142E-06	-6.91854E-06	-1.700986E-05	-1.820631E-06	1.655697E-06	-3.348362E-05	-2.077392E-05	8.525807E-06	7.936759E-06	1.295802E-05	1.295166E-05
-1.171561E-05	-1.149492E-05	-5.046196E-06	-1.0716E-05	-1.438916E-05	-9.609142E-06	-6.91854E-06	-1.700986E-05	-1.820631E-06	1.655697E-06	-3.348362E-05	-2.077392E-05	8.525807E-06	7.936759E-06	1.295802E-05	1.295166E-05
-1.075944E-05	-1.021653E-05	-6.468934E-06	-1.145454E-05	-1.543094E-05	-8.49459E-06	-5.115495E-06	-1.727665E-05	-7.212531E-07	4.74546E-07	-3.273528E-05	-1.988538E-05	6.219895E-06	7.313115E-06	1.403959E-05	1.344824E-05
-1.075944E-05	-1.021653E-05	-6.468934E-06	-1.145454E-05	-1.543094E-05	-8.49459E-06	-5.115495E-06	-1.727665E-05	-7.212531E-07	4.74546E-07	-3.273528E-05	-1.988538E-05	6.219895E-06	7.313115E-06	1.403959E-05	1.344824E-05
-1.061466E-05	-7.342176E-06	-5.69118E-06	-1.090441E-05	-1.656376E-05	-7.386437E-06	-3.862514E-06	-1.802674E-05	-1.712231E-07	-2.114652E-07	-3.122847E-05	-2.073003E-05	4.668357E-06	7.109062E-06	1.483417E-05	1.189152E-05
-1.061466E-05	-7.342176E-06	-5.69118E-06	-1.090441E-05	-1.656376E-05	-7.386437E-06	-3.862514E-06	-1.802674E-05	-1.712231E-07	-2.114652E-07	-3.122847E-05	-2.073003E-05	4.668357E-06	7.109062E-06	1.483417E-05	1.189152E-05
-1.063178E-05	-4.075576E-06	-3.519088E-06	-1.14408E-05	-1.710881E-05	-6.379231E-06	-3.798703E-06	-1.93556E-05	-1.60837E-07	5.999057E-07	-3.055879E-05	-2.216608E-05	3.852675E-06	6.017356E-06	1.559255E-05	9.816871E-06
-1.063178E-05	-4.075576E-06	-3.519088E-06	-1.14408E-05	-1.710881E-05	-6.379231E-06	-3.798703E-06	-1.93556E-05	-1.60837E-07	5.999057E-07	-3.055879E-05	-2.216608E-05	3.852675E-06	6.017356E-06	1.559255E-05	9.816871E-06
-1.015571E-05	-1.380097E-06	-2.376856E-06	-1.311336E-05	-1.689259E-05	-5.701136E-06	-3.96801E-06	-2.016951E-05	-7.1435E-08	2.668531E-06	-3.041086E-05	-2.321051E-05	3.425529E-06	3.766111E-06	1.598456E-05	9.252403E-06
-1.015571E-05	-1.380097E-06	-2.376856E-06	-1.311336E-05	-1.689259E-05	-5.701136E-06	-3.96801E-06	-2.016951E-05	-7.1435E-08	2.668531E-06	-3.041086E-05	-2.321051E-05	3.425529E-06	3.766111E-06	1.598456E-05	9.252403E-06
-1.031244E-05	5.887117E-08	-2.971786E-06	-1.301146E-05	-1.629632E-05	-6.015227E-06	-3.465656E-06	-1.942127E-05	7.921496E-07	3.747729E-06	-3.083249E-05	-2.39676E-05	3.192246E-06	2.370711E-06	1.587234E-05	9.21522E-06
-1.031244E-05	5.887117E-08	-2.971786E-06	-1.301146E-05	-1.629632E-05	-6.015227E-06	-3.465656E-06	-1.942127E-05	7.921496E-07	3.747729E-06	-3.083249E-05	-2.39676E-05	3.192246E-06	2.370711E-06	1.587234E-05	9.21522E-06
-1.117295E-05	5.493569E-07	-4.387052E-06	-1.078519E-05	-1.615675E-05	-6.941402E-06	-3.483318E-06	-1.841902E-05	3.074897E-06	3.679104E-06	-3.1659E-05	-2.477446E-05	3.972911E-06	1.554674E-06	1.570075E-05	9.308225E-06
-1.117295E-05	5.493569E-07	-4.387052E-06	-1.078519E-05	-1.615675E-05	-6.941402E-06	-3.483318E-06	-1.841902E-05	3.074897E-06	3.679104E-06	-3.1659E-05	-2.477446E-05	3.972911E-06	1.554674E-06	1.570075E-05	9.308225E-06
-1.129415E-05	6.7477E-07	-5.783578E-06	-8.895258E-06	-1.670605E-05	-7.759962E-06	-4.996996E-06	-1.84699E-05	4.543854E-06	4.11112E-06	-3.216633E-05	-2.378228E-05	6.400229E-06	3.570864E-06	1.600887E-05	9.901658E-06
-1.129415E-05	6.7477E-07	-5.783578E-06	-8.895258E-06	-1.670605E-05	-7.759962E-06	-4.996996E-06	-1.84699E-05	4.543854E-06	4.11112E-06	-3.216633E-05	-2.378228E-05	6.400229E-06	3.570864E-06	1.600887E-05	9.901658E-06
-9.992566E-06	4.503752E-07	-7.132037E-06	-8.579832E-06	-1.721064E-05	-8.564763E-06	-6.656053E-06	-1.855838E-05	3.89668E-06	5.198086E-06	-3.290476E-05	-2.170124E-05	7.29541E-06	5.978422E-06	1.807147E-05	1.114998E-05
-9.992566E-06	4.503752E-07	-7.132037E-06	-8.579832E-06	-1.721064E-05	-8.564763E-06	-6.656053E-06	-1.855838E-05	3.89668E-06	5.198086E-06	-3.290476E-05	-2.170124E-05	7.29541E-06	5.978422E-06	1.807147E-05	1.114998E-05
-8.527601E-06	5.669261E-07	-8.101263E-06	-9.31097E-06	-1.749213E-05	-9.130715E-06	-7.242563E-06	-1.836045E-05	4.405101E-06	4.783913E-06	-3.320155E-05	-2.275463E-05	8.730352E-06	4.927726E-06	1.963789E-05	1.075517E-05
-8.527601E-06	5.669261E-07	-8.101263E-06	-9.31097E-06	-1.749213E-05	-9.130715E-06	-7.242563E-06	-1.836045E-05	4.405101E-06	4.783913E-06	-3.320155E-05	-2.275463E-05	8.730352E-06	4.927726E-06	1.963789E-05	1.075517E-05
-8.413398E-06	2.378014E-06	-7.843506E-06	-1.016593E-05	-1.82272E-05	-9.061009E-06	-6.650784E-06	-1.915645E-05	5.467707E-06	3.377641E-06	-3.157248E-05	-2.320373E-05	1.086667E-05	3.983937E-06	1.936022E-05	9.314124E-06
-8.413398E-06	2.378014E-06	-7.843506E-06	-1.016593E-05	-1.82272E-05	-9.061009E-06	-6.650784E-06	-1.915645E-05	5.467707E-06	3.377641E-06	-3.157248E-05	-2.320373E-05	1.086667E-05	3.983937E-06	1.936022E-05	9.314124E-06
-9.573673E-06	5.067582E-06	-6.201375E-06	-1.040067E-05	-1.919506E-05	-8.907831E-06	-5.198868E-06	-2.098703E-05	4.766852E-06	2.293205E-06	-3.06239E-05	-2.122143E-05	1.061659E-05	4.593644E-06	1.820478E-05	9.742809E-06
-9.573673E-06	5.067582E-06	-6.201375E-06	-1.040067E-05	-1.919506E-05	-8.907831E-06	-5.198868E-06	-2.098703E-05	4.766852E-06	2.293205E-06	-3.06239E-05	-2.122143E-05	1.061659E-05	4.593644E-06	1.820478E-05	9.742809E-06
-1.138505E-05	6.217787E-06	-4.510622E-06	-1.050009E-05	-1.934223E-05	-8.807281E-06	-4.477726E-06	-2.209761E-05	3.384567E-06	1.899873E-06	-3.118809E-05	-1.990507E-05	8.007833E-06	5.276852E-06	1.670031E-05	9.478859E-06
-1.138505E-05	6.217787E-06	-4.510622E-06	-1.050009E-05	-1.934223E-05	-8.807281E-06	-4.477726E-06	-2.209761E-05	3.384567E-06	1.899873E-06	-3.118809E-05	-1.990507E-05	8.007833E-06	5.276852E-06	1.670031E-05	9.478859E-06
-1.32097E-05	4.873352E-06	-4.3541E-06	-1.166698E-05	-1.84732E-05	-8.095094E-06	-5.701879E-06	-2.143724E-05	2.926916E-06	2.333441E-06	-3.219438E-05	-2.004864E-05	5.943089E-06	4.865452E-06	1.456947E-05	1.007607E-05
-1.32097E-05	4.873352E-06	-4.3541E-06	-1.166698E-05	-1.84732E-05	-8.095094E-06	-5.701879E-06	-2.143724E-05	2.926916E-06	2.333441E-06	-3.219438E-05	-2.004864E-05	5.943089E-06	4.865452E-06	1.456947E-05	1.007607E-05
-1.410864E-05	7.132079E-07	-5.155694E-06	-1.263952E-05	-1.721162E-05	-7.133302E-06	-7.179728E-06	-2.021903E-05	4.478118E-06	1.984052E-06	-3.195371E-05	-1.973012E-05	7.176924E-06	2.806043E-06	1.317474E-05	1.114733E-05
-1.410864E-05	7.132079E-07	-5.155694E-06	-1.263952E-05	-1.721162E-05	-7.133302E-06	-7.179728E-06	-2.021903E-05	4.478118E-06	1.984052E-06	-3.195371E-05	-1.973012E-05	7.176924E-06	2.806043E-06	1.317474E-05	1.114733E-05
-1.399031E-05	-6.421165E-06	-5.343928E-06	-1.155782E-05	-1.616797E-05	-6.805835E-06	-6.88992E-06	-1.973225E-05	4.827258E-06	1.915635E-06	-3.175911E-05	-1.890417E-05	8.688242E-06	1.149542E-06	1.440379E-05	1.015089E-05
-1.399031E-05	-6.421165E-06	-5.343928E-06	-1.155782E-05	-1.616797E-05	-6.805835E-06	-6.88992E-06	-1.973225E-05	4.827258E-06	1.915635E-06	-3.175911E-05	-1.890417E-05	8.688242E-06	1.149542E-06	1.440379E-05	1.015089E-05
-1.369728E-05	-1.462652E-05	-4.664952E-06	-9.579249E-06	-1.60017E-05	-6.932587E-06	-5.30984E-06	-1.967289E-05	2.139368E-06	2.926852E-06	-3.228884E-05	-1.866457E-05	9.7402E-06	2.502846E-06	1.583704E-05	1.079599E-05
-1.369728E-05	-1.462652E-05	-4.664952E-06	-9.579249E-06	-1.60017E-05	-6.932587E-06	-5.30984E-06	-1.967289E-05	2.139368E-06	2.926852E-06	-3.228884E-05	-1.866457E-05	9.7402E-06	2.502846E-06	1.583704E-05	1.079599E-05
-1.365219E-05	-2.044061E-05	-3.514782E-06	-8.433682E-06	-1.71607E-05	-6.706784E-06	-4.029077E-06	-1.962534E-05	-3.993937E-08	2.959247E-06	-3.204958E-05	-1.755499E-05	9.371892E-06	4.614959E-06	1.570563E-05	1.209685E-05
-1.365219E-05	-2.044061E-05	-3.514782E-06	-8.433682E-06	-1.71607E-05	-6.706784E-06	-4.029077E-06	-1.962534E-05	-3.993937E-08	2.959247E-06	-3.204958E-05	-1.755499E-05	9.371892E-06	4.614959E-06	1.570563E-05	1.209685E-05
-1.356468E-05	-2.10846E-05	-2.593648E-06	-8.424137E-06	-1.874878E-05	-6.383223E-06	-3.738033E-06	-1.966057E-05	-1.494065E-06	2.853869E-06	-3.142912E-05	-1.716E-05	8.371167E-06	5.734374E-06	1.558936E-05	1.298762E-05
-1.356468E-05	-2.10846E-05	-2.593648E-06	-8.424137E-06	-1.874878E-05	-6.383223E-06	-3.738033E-06	-1.966057E-05	-1.494065E-06	2.853869E-06	-3.142912E-05	-1.716E-05	8.371167E-06	5.734374E-06	1.558936E-05	1.298762E-05
-1.310628E-05	-1.664573E-05	-2.909061E-06	-9.293122E-06	-1.891132E-05	-7.329721E-06	-3.759912E-06	-1.966124E-05	-2.541368E-06	3.674805E-06	-3.191182E-05	-1.5811E-05	7.695752E-06	4.178461E-06	1.656498E-05	1.32755E-05
-1.310628E-05	-1.664573E-05	-2.909061E-06	-9.293122E-06	-1.891132E-05	-7.329721E-06	-3.759912E-06	-1.966124E-05	-2.541368E-06	3.674805E-06	-3.191182E-05	-1.5811E-05	7.695752E-06	4.178461E-06	1.656498E-05	1.32755E-05
-1.264905E-05	-1.173894E-05	-4.162902E-06	-1.035209E-05	-1.747636E-05	-9.083726E-06	-3.397294E-06	-1.927836E-05	-2.727766E-06	4.810551E-06	-3.365972E-05	-1.339985E-05	7.717756E-06	3.198503E-06	1.725572E-05	1.290075E-05
-1.264905E-05	-1.173894E-05	-4.162902E-06	-1.035209E-05	-1.747636E-05	-9.083726E-06	-3.397294E-06	-1.927836E-05	-2.727766E-06	4.810551E-06	-3.365972E-05	-1.339985E-05	7.717756E-06	3.198503E-06	1.725572E-05	1.290075E-05
-1.276887E-05	-1.080277E-05	-5.045275E-06	-1.085547E-05	-1.618601E-05	-9.680823E-06	-2.89415E-06	-1.855961E-05	-1.336798E-06	5.125733E-06	-3.348866E-05	-1.220847E-05	7.50715E-06	3.514658E-06	1.750145E-05	1.244178E-05
-1.276887E-05	-1.080277E-05	-5.045275E-06	-1.085547E-05	-1.618601E-05	-9.680823E-06	-2.89415E-06	-1.855961E-05	-1.336798E-06	5.125733E-06	-3.348866E-05	-1.220847E-05	7.50715E-06	3.514658E-06	1.750145E-05	1.244178E-05
-1.298308E-05	-1.151746E-05	-5.271964E-06	-1.06841E-05	-1.599275E-05	-9.35652E-06	-2.689818E-06	-1.830505E-05	-5.28853E-07	4.206438E-06	-3.192251E-05	-1.290333E-05	7.39728E-06	4.290103E-06	1.59209E-05	1.253306E-05
-1.298308E-05	-1.151746E-05	-5.271964E-06	-1.06841E-05	-1.599275E-05	-9.35652E-06	-2.689818E-06	-1.830505E-05	-5.28853E-07	4.206438E-06	-3.192251E-05	-1.290333E-05	7.39728E-06	4.290103E-06	1.59209E-05	1.253306E-05
-1.258251E-05	-9.986143E-06	-4.954069E-06	-9.937557E-06	-1.610147E-05	-9.513235E-06	-3.142674E-06	-1.876061E-05	-1.181254E-06	2.594139E-06	-3.158822E-05	-1.33897E-05	8.463514E-06	5.166455E-06	1.264484E-05	1.280216E-05
-1.258251E-05	-9.986143E-06	-4.954069E-06	-9.937557E-06	-1.610147E-05	-9.513235E-06	-3.142674E-06	-1.876061E-05	-1.181254E-06	2.594139E-06	-3.158822E-05	-1.33897E-05	8.463514E-06	5.166455E-06	1.264484E-05	1.280216E-05
-1.199692E-05	-6.785014E-06	-3.939599E-06	-8.66678E-06	-1.557396E-05	-9.914283E-06	-4.103589E-06	-1.883343E-05	-2.030967E-06	1.225291E-06	-3.289776E-05	-1.409892E-05	8.868001E-06	5.879461E-06	1.065882E-05	1.283145E-05
-1.199692E-05	-6.785014E-06	-3.939599E-06	-8.66678E-06	-1.557396E-05	-9.914283E-06	-4.103589E-06	-1.883343E-05	-2.030967E-06	1.225291E-06	-3.289776E-05	-1.409892E-05	8.868001E-06	5.879461E-06	1.065882E-05	1.283145E-05
-1.215321E-05	-3.428044E-06	-3.063433E-06	-7.457797E-06	-1.503268E-05	-9.332184E-06	-4.236978E-06	-1.753076E-05	-1.298947E-06	5.457687E-07	-3.394464E-05	-1.585509E-05	8.047729E-06	6.919239E-06	1.164994E-05	1.360787E-05
-1.215321E-05	-3.428044E-06	-3.063433E-06	-7.457797E-06	-1.503268E-05	-9.332184E-06	-4.236978E-06	-1.753076E-05	-1.298947E-06	5.457687E-07	-3.394464E-05	-1.585509E-05	8.047729E-06	6.919239E-06	1.164994E-05	1.360787E-05
-1.27894E-05	-8.224777E-07	-2.984496E-06	-7.215436E-06	-1.543407E-05	-7.627364E-06	-3.149109E-06	-1.493036E-05	5.568602E-07	7.80516E-07	-3.408826E-05	-1.785514E-05	7.412743E-06	7.381125E-06	1.260103E-05	1.476256E-05
-1.27894E-05	-8.224777E-07	-2.984496E-06	-7.215436E-06	-1.543407E-05	-7.627364E-06	-3.149109E-06	-1.493036E-05	5.568602E-07	7.80516E-07	-3.408826E-05	-1.785514E-05	7.412743E-06	7.381125E-06	1.260103E-05	1.476256E-05
-1.225763E-05	3.890654E-08	-3.106666E-06	-8.308315E-06	-1.629783E-05	-6.305101E-06	-2.499766E-06	-1.203687E-05	1.988323E-06	1.409952E-06	-3.31637E-05	-1.852562E-05	8.163378E-06	7.299125E-06	1.214258E-05	1.60465E-05
-1.225763E-05	3.890654E-08	-3.106666E-06	-8.308315E-06	-1.629783E-05	-6.305101E-06	-2.499766E-06	-1.203687E-05	1.988323E-06	1.409952E-06	-3.31637E-05	-1.852562E-05	8.163378E-06	7.299125E-06	1.214258E-05	1.60465E-05
-9.878397E-06	2.006489E-08	-3.863345E-06	-1.024855E-05	-1.692529E-05	-6.615962E-06	-2.53565E-06	-1.055818E-05	1.105408E-06	8.533739E-07	-3.240784E-05	-1.820091E-05	8.890825E-06	7.479218E-06	1.088205E-05	1.611521E-05
-9.878397E-06	2.006489E-08	-3.863345E-06	-1.024855E-05	-1.692529E-05	-6.615962E-06	-2.53565E-06	-1.055818E-05	1.105408E-06	8.533739E-07	-3.240784E-05	-1.820091E-05	8.890825E-06	7.479218E-06	1.088205E-05	1.611521E-05
-7.136248E-06	1.104354E-06	-5.69542E-06	-1.215405E-05	-1.740153E-05	-8.119355E-06	-1.867455E-06	-1.146757E-05	-1.465236E-06	-1.665698E-07	-3.268264E-05	-1.890502E-05	8.984215E-06	8.547017E-06	9.665597E-06	1.519131E-05
-7.136248E-06	1.104354E-06	-5.69542E-06	-1.215405E-05	-1.740153E-05	-8.119355E-06	-1.867455E-06	-1.146757E-05	-1.465236E-06	-1.665698E-07	-3.268264E-05	-1.890502E-05	8.984215E-06	8.547017E-06	9.665597E-06	1.519131E-05
-5.962605E-06	3.265405E-06	-6.411291E-06	-1.343473E-05	-1.793777E-05	-9.336231E-06	-6.958853E-07	-1.361893E-05	-1.854109E-06	-6.099614E-07	-3.38991E-05	-2.073848E-05	8.505582E-06	8.310029E-06	8.732178E-06	1.512776E-05
-5.962605E-06	3.265405E-06	-6.411291E-06	-1.343473E-05	-1.793777E-05	-9.336231E-06	-6.958853E-07	-1.361893E-05	-1.854109E-06	-6.099614E-07	-3.38991E-05	-2.073848E-05	8.505582E-06	8.310029E-06	8.732178E-06	1.512776E-05
-6.784006E-06	4.118771E-06	-4.80286E-06	-1.354759E-05	-1.823447E-05	-9.09431E-06	6.564149E-08	-1.50908E-05	-1.643657E-06	-7.71959E-07	-3.504696E-05	-2.239762E-05	8.087061E-06	7.227323E-06	7.427429E-06	1.547197E-05
-6.784006E-06	4.118771E-06	-4.80286E-06	-1.354759E-05	-1.823447E-05	-9.09431E-06	6.564149E-08	-1.50908E-05	-1.643657E-06	-7.71959E-07	-3.504696E-05	-2.239762E-05	8.087061E-06	7.227323E-06	7.427429E-06	1.547197E-05
-8.409842E-06	1.742076E-06	-2.971185E-06	-1.245747E-05	-1.768641E-05	-7.729389E-06	1.763543E-07	-1.532258E-05	-2.310844E-06	-9.406069E-07	-3.493832E-05	-2.114196E-05	7.293901E-06	6.548682E-06	6.870724E-06	1.457375E-05
-8.409842E-06	1.742076E-06	-2.971185E-06	-1.245747E-05	-1.768641E-05	-7.729389E-06	1.763543E-07	-1.532258E-05	-2.310844E-06	-9.406069E-07	-3.493832E-05	-2.114196E-05	7.293901E-06	6.548682E-06	6.870724E-06	1.457375E-05
-9.51867E-06	-2.488239E-06	-2.66917E-06	-1.172978E-05	-1.639975E-05	-6.970656E-06	-7.285768E-07	-1.523249E-05	-1.43428E-06	-1.120933E-06	-3.372823E-05	-1.87136E-05	7.153057E-06	6.852226E-06	8.415174E-06	1.383416E-05
-9.51867E-06	-2.488239E-06	-2.66917E-06	-1.172978E-05	-1.639975E-05	-6.970656E-06	-7.285768E-07	-1.523249E-05	-1.43428E-06	-1.120933E-06	-3.372823E-05	-1.87136E-05	7.153057E-06	6.852226E-06	8.415174E-06	1.383416E-05
-9.749773E-06	-5.006534E-06	-3.101934E-06	-1.242905E-05	-1.542096E-05	-7.751853E-06	-2.125022E-06	-1.528425E-05	1.192717E-06	-1.491584E-06	-3.246936E-05	-1.799295E-05	7.165094E-06	6.611926E-06	1.006651E-05	1.416837E-05
-9.749773E-06	-5.006534E-06	-3.101934E-06	-1.242905E-05	-1.542096E-05	-7.751853E-06	-2.125022E-06	-1.528425E-05	1.192717E-06	-1.491584E-06	-3.246936E-05	-1.799295E-05	7.165094E-06	6.611926E-06	1.006651E-05	1.416837E-05
-9.605395E-06	-4.212088E-06	-2.623569E-06	-1.337519E-05	-1.552496E-05	-9.040779E-06	-2.511281E-06	-1.48237E-05	3.651483E-06	-7.484929E-07	-3.264363E-05	-1.918268E-05	5.703949E-06	6.960217E-06	1.101294E-05	1.403916E-05
-9.605395E-06	-4.212088E-06	-2.623569E-06	-1.337519E-05	-1.552496E-05	-9.040779E-06	-2.511281E-06	-1.48237E-05	3.651483E-06	-7.484929E-07	-3.264363E-05	-1.918268E-05	5.703949E-06	6.960217E-06	1.101294E-05	1.403916E-05
-1.014018E-05	-1.35324E-06	-1.605807E-06	-1.350041E-05	-1.601897E-05	-9.406582E-06	-1.82288E-06	-1.427345E-05	4.615632E-06	6.87835E-07	-3.337804E-05	-1.968863E-05	5.398108E-06	7.267082E-06	1.11541E-05	1.384111E-05
-1.014018E-05	-1.35324E-06	-1.605807E-06	-1.350041E-05	-1.601897E-05	-9.406582E-06	-1.82288E-06	-1.427345E-05	4.615632E-06	6.87835E-07	-3.337804E-05	-1.968863E-05	5.398108E-06	7.267082E-06	1.11541E-05	1.384111E-05
-1.203375E-05	2.264154E-06	-1.537582E-06	-1.277491E-05	-1.597368E-05	-8.265503E-06	-1.004557E-06	-1.499958E-05	4.459463E-06	1.518926E-06	-3.383826E-05	-1.959926E-05	5.657868E-06	6.624726E-06	1.015491E-05	1.33148E-05
-1.203375E-05	2.264154E-06	-1.537582E-06	-1.277491E-05	-1.597368E-05	-8.265503E-06	-1.004557E-06	-1.499958E-05	4.459463E-06	1.518926E-06	-3.383826E-05	-1.959926E-05	5.657868E-06	6.624726E-06	1.015491E-05	1.33148E-05
-1.378456E-05	4.866933E-06	-2.247345E-06	-1.138013E-05	-1.591926E-05	-6.468521E-06	-4.983562E-07	-1.658714E-05	3.530283E-06	1.615022E-06	-3.381007E-05	-2.033261E-05	5.44037E-06	7.299745E-06	9.530344E-06	1.307054E-05
-1.378456E-05	4.866933E-06	-2.247345E-06	-1.138013E-05	-1.591926E-05	-6.468521E-06	-4.983562E-07	-1.658714E-05	3.530283E-06	1.615022E-06	-3.381007E-05	-2.033261E-05	5.44037E-06	7.299745E-06	9.530344E-06	1.307054E-05
-1.394483E-05	5.196214E-06	-3.087993E-06	-1.027891E-05	-1.619137E-05	-5.818364E-06	-5.507415E-07	-1.715565E-05	2.489048E-06	2.354365E-06	-3.190358E-05	-2.169077E-05	6.895505E-06	7.694906E-06	8.550027E-06	1.531766E-05
-1.394483E-05	5.196214E-06	-3.087993E-06	-1.027891E-05	-1.619137E-05	-5.818364E-06	-5.507415E-07	-1.715565E-05	2.489048E-06	2.354365E-06	-3.190358E-05	-2.169077E-05	6.895505E-06	7.694906E-06	8.550027E-06	1.531766E-05
-1.387963E-05	6.271433E-06	-3.89896E-06	-1.029614E-05	-1.61453E-05	-6.489201E-06	-1.011631E-06	-1.585232E-05	3.591312E-06	2.445517E-06	-2.900673E-05	-2.231587E-05	7.064808E-06	6.700487E-06	8.144062E-06	1.589647E-05
-1.387963E-05	6.271433E-06	-3.89896E-06	-1.029614E-05	-1.61453E-05	-6.489201E-06	-1.011631E-06	-1.585232E-05	3.591312E-06	2.445517E-06	-2.900673E-05	-2.231587E-05	7.064808E-06	6.700487E-06	8.144062E-06	1.589647E-05
-1.413094E-05	1.039081E-05	-4.108359E-06	-1.071736E-05	-1.598359E-05	-6.753068E-06	-1.692285E-06	-1.36466E-05	5.299249E-06	1.237052E-06	-2.733203E-05	-2.181681E-05	7.475114E-06	6.560668E-06	7.314071E-06	1.508772E-05
-1.413094E-05	1.039081E-05	-4.108359E-06	-1.071736E-05	-1.598359E-05	-6.753068E-06	-1.692285E-06	-1.36466E-05	5.299249E-06	1.237052E-06	-2.733203E-05	-2.181681E-05	7.475114E-06	6.560668E-06	7.314071E-06	1.508772E-05
-1.36917E-05	1.461399E-05	-3.745259E-06	-1.05235E-05	-1.597867E-05	-6.067671E-06	-2.402589E-06	-1.245824E-05	6.434946E-06	4.479935E-07	-2.790122E-05	-2.074015E-05	9.284467E-06	7.876765E-06	7.693888E-06	1.385342E-05
-1.36917E-05	1.461399E-05	-3.745259E-06	-1.05235E-05	-1.597867E-05	-6.067671E-06	-2.402589E-06	-1.245824E-05	6.434946E-06	4.479935E-07	-2.790122E-05	-2.074015E-05	9.284467E-06	7.876765E-06	7.693888E-06	1.385342E-05
-1.300352E-05	1.540401E-05	-3.68822E-06	-9.586826E-06	-1.552769E-05	-5.66783E-06	-2.429912E-06	-1.334766E-05	6.498223E-06	8.789642E-07	-2.984786E-05	-2.024382E-05	8.540475E-06	8.691783E-06	8.343394E-06	1.248591E-05
-1.300352E-05	1.540401E-05	-3.68822E-06	-9.586826E-06	-1.552769E-05	-5.66783E-06	-2.429912E-06	-1.334766E-05	6.498223E-06	8.789642E-07	-2.984786E-05	-2.024382E-05	8.540475E-06	8.691783E-06	8.343394E-06	1.248591E-05
-1.24127E-05	1.167996E-05	-3.911417E-06	-8.412008E-06	-1.491576E-05	-6.128906E-06	-1.891548E-06	-1.481497E-05	5.367926E-06	1.820344E-06	-3.068279E-05	-2.086723E-05	5.791566E-06	6.838443E-06	7.953923E-06	1.160894E-05
-1.24127E-05	1.167996E-05	-3.911417E-06	-8.412008E-06	-1.491576E-05	-6.128906E-06	-1.891548E-06	-1.481497E-05	5.367926E-06	1.820344E-06	-3.068279E-05	-2.086723E-05	5.791566E-06	6.838443E-06	7.953923E-06	1.160894E-05
-1.132965E-05	5.301226E-06	-3.645696E-06	-8.193123E-06	-1.501833E-05	-6.668476E-06	-1.809604E-06	-1.468885E-05	3.465629E-06	2.188795E-06	-2.973887E-05	-2.143195E-05	4.066825E-06	4.883283E-06	7.904114E-06	1.145111E-05
-1.132965E-05	5.301226E-06	-3.645696E-06	-8.193123E-06	-1.501833E-05	-6.668476E-06	-1.809604E-06	-1.468885E-05	3.465629E-06	2.188795E-06	-2.973887E-05	-2.143195E-05	4.066825E-06	4.883283E-06	7.904114E-06	1.145111E-05
-1.014131E-05	-4.204969E-07	-2.780454E-06	-9.993135E-06	-1.567631E-05	-6.470941E-06	-2.397592E-06	-1.321887E-05	2.699845E-06	1.999734E-06	-2.881784E-05	-2.09466E-05	4.08802E-06	4.355899E-06	9.437102E-06	1.275723E-05
-1.014131E-05	-4.204969E-07	-2.780454E-06	-9.993135E-06	-1.567631E-05	-6.470941E-06	-2.397592E-06	-1.321887E-05	2.699845E-06	1.999734E-06	-2.881784E-05	-2.09466E-05	4.08802E-06	4.355899E-06	9.437102E-06	1.275723E-05
-1.021062E-05	-5.791395E-06	-1.929175E-06	-1.240901E-05	-1.640286E-05	-6.037028E-06	-2.97841E-06	-1.211968E-05	3.17612E-06	2.175841E-06	-2.906708E-05	-2.026699E-05	3.995071E-06	4.890852E-06	1.018372E-05	1.28548E-05
-1.021062E-05	-5.791395E-06	-1.929175E-06	-1.240901E-05	-1.640286E-05	-6.037028E-06	-2.97841E-06	-1.211968E-05	3.17612E-06	2.175841E-06	-2.906708E-05	-2.026699E-05	3.995071E-06	4.890852E-06	1.018372E-05	1.28548E-05
-1.187051E-05	-1.337647E-05	-1.813467E-06	-1.299143E-05	-1.713205E-05	-6.349738E-06	-3.065164E-06	-1.212783E-05	3.728956E-06	3.177974E-06	-2.95224E-05	-2.082019E-05	4.838592E-06	4.885332E-06	8.901025E-06	1.215372E-05
-1.187051E-05	-1.337647E-05	-1.813467E-06	-1.299143E-05	-1.713205E-05	-6.349738E-06	-3.065164E-06	-1.212783E-05	3.728956E-06	3.177974E-06	-2.95224E-05	-2.082019E-05	4.838592E-06	4.885332E-06	8.901025E-06	1.215372E-05
-1.338806E-05	-2.163371E-05	-2.609197E-06	-1.208777E-05	-1.780829E-05	-6.925684E-06	-2.932179E-06	-1.256895E-05	3.361352E-06	3.396959E-06	-2.986792E-05	-2.025581E-05	6.758542E-06	4.521255E-06	8.152478E-06	1.139446E-05
-1.338806E-05	-2.163371E-05	-2.609197E-06	-1.208777E-05	-1.780829E-05	-6.925684E-06	-2.932179E-06	-1.256895E-05	3.361352E-06	3.396959E-06	-2.986792E-05	-2.025581E-05	6.758542E-06	4.521255E-06	8.152478E-06	1.139446E-05
-1.33141E-05	-2.647671E-05	-3.744135E-06	-1.135397E-05	-1.81252E-05	-7.170149E-06	-3.110657E-06	-1.28788E-05	2.363404E-06	2.6013E-06	-3.003569E-05	-1.761126E-05	7.608569E-06	5.653726E-06	8.690638E-06	1.155333E-05
-1.33141E-05	-2.647671E-05	-3.744135E-06	-1.135397E-05	-1.81252E-05	-7.170149E-06	-3.110657E-06	-1.28788E-05	2.363404E-06	2.6013E-06	-3.003569E-05	-1.761126E-05	7.608569E-06	5.653726E-06	8.690638E-06	1.155333E-05
-1.24531E-05	-2.560729E-05	-4.545837E-06	-1.108043E-05	-1.787694E-05	-7.393508E-06	-3.653939E-06	-1.319949E-05	-5.721992E-07	2.806069E-06	-3.017968E-05	-1.564316E-05	6.849607E-06	8.175381E-06	9.523402E-06	1.264968E-05
-1.24531E-05	-2.560729E-05	-4.545837E-06	-1.108043E-05	-1.787694E-05	-7.393508E-06	-3.653939E-06	-1.319949E-05	-5.721992E-07	2.806069E-06	-3.017968E-05	-1.564316E-05	6.849607E-06	8.175381E-06	9.523402E-06	1.264968E-05
-1.231608E-05	-1.928392E-05	-4.918414E-06	-1.121207E-05	-1.755061E-05	-7.022884E-06	-4.167852E-06	-1.306764E-05	-4.851412E-06	4.534166E-06	-3.083489E-05	-1.651374E-05	6.339631E-06	1.012871E-05	1.008047E-05	1.425485E-05
-1.231608E-05	-1.928392E-05	-4.918414E-06	-1.121207E-05	-1.755061E-05	-7.022884E-06	-4.167852E-06	-1.306764E-05	-4.851412E-06	4.534166E-06	-3.083489E-05	-1.651374E-05	6.339631E-06	1.012871E-05	1.008047E-05	1.425485E-05
-1.307788E-05	-1.126539E-05	-5.247834E-06	-1.193644E-05	-1.775907E-05	-5.926339E-06	-4.290137E-06	-1.210536E-05	-7.359819E-06	5.61158E-06	-3.173938E-05	-1.833622E-05	6.843314E-06	9.701057E-06	1.049983E-05	1.407997E-05
-1.307788E-05	-1.126539E-05	-5.247834E-06	-1.193644E-05	-1.775907E-05	-5.926339E-06	-4.290137E-06	-1.210536E-05	-7.359819E-06	5.61158E-06	-3.173938E-05	-1.833622E-05	6.843314E-06	9.701057E-06	1.049983E-05	1.407997E-05
-1.356856E-05	-6.571684E-06	-5.715846E-06	-1.327207E-05	-1.825623E-05	-5.783916E-06	-3.991915E-06	-1.114205E-05	-6.838472E-06	5.088627E-06	-3.148617E-05	-1.819152E-05	7.620894E-06	7.653999E-06	1.031662E-05	1.209126E-05
-1.356856E-05	-6.571684E-06	-5.715846E-06	-1.327207E-05	-1.825623E-05	-5.783916E-06	-3.991915E-06	-1.114205E-05	-6.838472E-06	5.088627E-06	-3.148617E-05	-1.819152E-05	7.620894E-06	7.653999E-06	1.031662E-05	1.209126E-05
-1.319888E-05	-6.423059E-06	-5.763224E-06	-1.508501E-05	-1.829899E-05	-6.894289E-06	-3.442216E-06	-1.068907E-05	-5.538716E-06	4.416277E-06	-3.03569E-05	-1.684508E-05	8.150335E-06	6.148547E-06	1.095929E-05	1.102842E-05
-1.319888E-05	-6.423059E-06	-5.763224E-06	-1.508501E-05	-1.829899E-05	-6.894289E-06	-3.442216E-06	-1.068907E-05	-5.538716E-06	4.416277E-06	-3.03569E-05	-1.684508E-05	8.150335E-06	6.148547E-06	1.095929E-05	1.102842E-05
-1.272913E-05	-8.323382E-06	-4.660856E-06	-1.638844E-05	-1.781692E-05	-7.708747E-06	-2.884101E-06	-1.028717E-05	-5.62115E-06	4.245908E-06	-3.001544E-05	-1.612085E-05	9.345174E-06	5.34434E-06	1.194266E-05	1.031924E-05
-1.272913E-05	-8.323382E-06	-4.660856E-06	-1.638844E-05	-1.781692E-05	-7.708747E-06	-2.884101E-06	-1.028717E-05	-5.62115E-06	4.245908E-06	-3.001544E-05	-1.612085E-05	9.345174E-06	5.34434E-06	1.194266E-05	1.031924E-05
-1.281582E-05	-9.743769E-06	-2.690753E-06	-1.551172E-05	-1.767143E-05	-7.738498E-06	-2.704461E-06	-9.670041E-06	-5.835906E-06	4.088919E-06	-2.962242E-05	-1.567216E-05	1.125821E-05	4.95209E-06	1.189609E-05	8.699933E-06
-1.281582E-05	-9.743769E-06	-2.690753E-06	-1.551172E-05	-1.767143E-05	-7.738498E-06	-2.704461E-06	-9.670041E-06	-5.835906E-06	4.088919E-06	-2.962242E-05	-1.567216E-05	1.125821E-05	4.95209E-06	1.189609E-05	8.699933E-06
-1.298884E-05	-9.86863E-06	-1.332835E-06	-1.293085E-05	-1.817014E-05	-7.360908E-06	-3.408901E-06	-9.335464E-06	-5.861003E-06	3.926803E-06	-2.782324E-05	-1.560896E-05	1.142629E-05	4.590171E-06	1.089083E-05	6.966266E-06
-1.298884E-05	-9.86863E-06	-1.332835E-06	-1.293085E-05	-1.817014E-05	-7.360908E-06	-3.408901E-06	-9.335464E-06	-5.861003E-06	3.926803E-06	-2.782324E-05	-1.560896E-05	1.142629E-05	4.590171E-06	1.089083E-05	6.966266E-06
-1.238231E-05	-8.98247E-06	-1.73806E-06	-1.110546E-05	-1.85879E-05	-7.067359E-06	-4.980322E-06	-9.63097E-06	-5.723222E-06	3.506346E-06	-2.727846E-05	-1.617306E-05	8.676077E-06	3.953854E-06	9.625687E-06	6.848759E-06
-1.238231E-05	-8.98247E-06	-1.73806E-06	-1.110546E-05	-1.85879E-05	-7.067359E-06	-4.980322E-06	-9.63097E-06	-5.723222E-06	3.506346E-06	-2.727846E-05	-1.617306E-05	8.676077E-06	3.953854E-06	9.625687E-06	6.848759E-06
-1.116301E-05	-7.019087E-06	-3.095695E-06	-1.05993E-05	-1.858089E-05	-7.89548E-06	-6.305317E-06	-9.640606E-06	-7.07742E-06	1.772962E-06	-2.773271E-05	-1.749917E-05	7.306149E-06	5.190568E-06	1.040226E-05	9.408012E-06
-1.116301E-05	-7.019087E-06	-3.095695E-06	-1.05993E-05	-1.858089E-05	-7.89548E-06	-6.305317E-06	-9.640606E-06	-7.07742E-06	1.772962E-06	-2.773271E-05	-1.749917E-05	7.306149E-06	5.190568E-06	1.040226E-05	9.408012E-06
-1.037756E-05	-4.250288E-06	-3.896843E-06	-1.044946E-05	-1.803541E-05	-9.684989E-06	-6.603083E-06	-8.761813E-06	-8.847144E-06	1.050365E-06	-2.740402E-05	-1.842066E-05	9.171227E-06	5.821462E-06	1.240353E-05	1.051103E-05
-1.037756E-05	-4.250288E-06	-3.896843E-06	-1.044946E-05	-1.803541E-05	-9.684989E-06	-6.603083E-06	-8.761813E-06	-8.847144E-06	1.050365E-06	-2.740402E-05	-1.842066E-05	9.171227E-06	5.821462E-06	1.240353E-05	1.051103E-05
-1.054033E-05	-2.13315E-06	-3.948209E-06	-1.047192E-05	-1.671765E-05	-1.065047E-05	-6.511411E-06	-7.994734E-06	-9.566201E-06	2.523846E-06	-2.825532E-05	-1.88153E-05	1.053219E-05	5.29512E-06	1.306566E-05	8.13007E-06
-1.054033E-05	-2.13315E-06	-3.948209E-06	-1.047192E-05	-1.671765E-05	-1.065047E-05	-6.511411E-06	-7.994734E-06	-9.566201E-06	2.523846E-06	-2.825532E-05	-1.88153E-05	1.053219E-05	5.29512E-06	1.306566E-05	8.13007E-06
-1.125914E-05	-1.284847E-06	-4.222972E-06	-1.040803E-05	-1.574042E-05	-1.000699E-05	-6.490126E-06	-8.239947E-06	-1.013878E-05	4.097642E-06	-2.903687E-05	-1.96667E-05	1.104031E-05	4.552749E-06	1.341883E-05	5.96452E-06
-1.125914E-05	-1.284847E-06	-4.222972E-06	-1.040803E-05	-1.574042E-05	-1.000699E-05	-6.490126E-06	-8.239947E-06	-1.013878E-05	4.097642E-06	-2.903687E-05	-1.96667E-05	1.104031E-05	4.552749E-06	1.341883E-05	5.96452E-06
-1.203381E-05	-1.181137E-06	-5.523111E-06	-9.753901E-06	-1.660914E-05	-8.224861E-06	-6.074254E-06	-9.474025E-06	-9.773917E-06	4.860075E-06	-2.986736E-05	-2.100129E-05	1.180235E-05	4.511898E-06	1.368665E-05	6.347244E-06
-1.203381E-05	-1.181137E-06	-5.523111E-06	-9.753901E-06	-1.660914E-05	-8.224861E-06	-6.074254E-06	-9.474025E-06	-9.773917E-06	4.860075E-06	-2.986736E-05	-2.100129E-05	1.180235E-05	4.511898E-06	1.368665E-05	6.347244E-06
-1.241814E-05	-1.940188E-06	-6.891719E-06	-9.097382E-06	-1.838709E-05	-6.518083E-06	-4.901231E-06	-1.084464E-05	-8.351705E-06	4.161481E-06	-2.989346E-05	-2.17834E-05	1.278064E-05	4.950083E-06	1.410445E-05	8.820184E-06
-1.241814E-05	-1.940188E-06	-6.891719E-06	-9.097382E-06	-1.838709E-05	-6.518083E-06	-4.901231E-06	-1.084464E-05	-8.351705E-06	4.161481E-06	-2.989346E-05	-2.17834E-05	1.278064E-05	4.950083E-06	1.410445E-05	8.820184E-06
-1.213151E-05	-3.355578E-06	-7.200711E-06	-9.232062E-06	-1.868922E-05	-6.270564E-06	-3.03339E-06	-1.166906E-05	-7.705192E-06	3.997312E-06	-2.804707E-05	-2.024814E-05	1.271837E-05	4.430312E-06	1.379689E-05	1.065733E-05
-1.213151E-05	-3.355578E-06	-7.200711E-06	-9.232062E-06	-1.868922E-05	-6.270564E-06	-3.03339E-06	-1.166906E-05	-7.705192E-06	3.997312E-06	-2.804707E-05	-2.024814E-05	1.271837E-05	4.430312E-06	1.379689E-05	1.065733E-05
-1.175535E-05	-3.953287E-06	-7.376645E-06	-9.427062E-06	-1.722168E-05	-6.936179E-06	-1.37174E-06	-1.27574E-05	-6.520224E-06	3.792401E-06	-2.847338E-05	-2.06522E-05	1.17813E-05	3.115116E-06	1.501035E-05	1.069818E-05
-1.175535E-05	-3.953287E-06	-7.376645E-06	-9.427062E-06	-1.722168E-05	-6.936179E-06	-1.37174E-06	-1.27574E-05	-6.520224E-06	3.792401E-06	-2.847338E-05	-2.06522E-05	1.17813E-05	3.115116E-06	1.501035E-05	1.069818E-05
-1.179859E-05	-3.060973E-06	-7.889669E-06	-8.494287E-06	-1.618174E-05	-7.373318E-06	-1.613687E-06	-1.435634E-05	-3.804566E-06	2.50293E-06	-3.008669E-05	-2.19382E-05	1.085849E-05	3.058727E-06	1.625102E-05	9.112757E-06
-1.179859E-05	-3.060973E-06	-7.889669E-06	-8.494287E-06	-1.618174E-05	-7.373318E-06	-1.613687E-06	-1.435634E-05	-3.804566E-06	2.50293E-06	-3.008669E-05	-2.19382E-05	1.085849E-05	3.058727E-06	1.625102E-05	9.112757E-06
-1.18639E-05	-1.916056E-06	-7.481156E-06	-6.820841E-06	-1.668181E-05	-7.632816E-06	-3.030086E-06	-1.470701E-05	-8.784279E-07	1.22561E-06	-3.102381E-05	-2.223067E-05	9.625286E-06	3.241735E-06	1.666646E-05	8.01746E-06
-1.18639E-05	-1.916056E-06	-7.481156E-06	-6.820841E-06	-1.668181E-05	-7.632816E-06	-3.030086E-06	-1.470701E-05	-8.784279E-07	1.22561E-06	-3.102381E-05	-2.223067E-05	9.625286E-06	3.241735E-06	1.666646E-05	8.01746E-06
-1.171564E-05	-1.91721E-06	-5.657669E-06	-5.737862E-06	-1.73937E-05	-7.67752E-06	-2.318551E-06	-1.28985E-05	9.093999E-07	2.541757E-06	-3.126E-05	-2.19463E-05	9.193804E-06	3.141361E-06	1.701558E-05	8.988319E-06
-1.171564E-05	-1.91721E-06	-5.657669E-06	-5.737862E-06	-1.73937E-05	-7.67752E-06	-2.318551E-06	-1.28985E-05	9.093999E-07	2.541757E-06	-3.126E-05	-2.19463E-05	9.193804E-06	3.141361E-06	1.701558E-05	8.988319E-06
-1.169169E-05	-2.738122E-06	-3.595588E-06	-5.533495E-06	-1.735982E-05	-7.453504E-06	7.298491E-07	-1.107456E-05	2.797557E-06	3.13341E-06	-3.066201E-05	-2.177343E-05	9.970673E-06	3.636495E-06	1.854417E-05	1.043758E-05
-1.169169E-05	-2.738122E-06	-3.595588E-06	-5.533495E-06	-1.735982E-05	-7.453504E-06	7.298491E-07	-1.107456E-05	2.797557E-06	3.13341E-06	-3.066201E-05	-2.177343E-05	9.970673E-06	3.636495E-06	1.854417E-05	1.043758E-05
-1.198765E-05	-3.316508E-06	-2.792978E-06	-5.938349E-06	-1.700262E-05	-7.301287E-06	2.947581E-06	-1.148819E-05	3.553684E-06	2.100863E-06	-3.050093E-05	-2.2841E-05	1.014413E-05	3.85061E-06	2.051742E-05	1.110576E-05
-1.198765E-05	-3.316508E-06	-2.792978E-06	-5.938349E-06	-1.700262E-05	-7.301287E-06	2.947581E-06	-1.148819E-05	3.553684E-06	2.100863E-06	-3.050093E-05	-2.2841E-05	1.014413E-05	3.85061E-06	2.051742E-05	1.110576E-05
-1.238316E-05	-3.579811E-06	-3.62781E-06	-7.121511E-06	-1.686194E-05	-7.205227E-06	2.653144E-06	-1.324459E-05	1.327169E-06	9.802052E-07	-3.042887E-05	-2.302845E-05	8.961711E-06	3.781151E-06	2.149502E-05	1.179802E-05
-1.238316E-05	-3.579811E-06	-3.62781E-06	-7.121511E-06	-1.686194E-05	-7.205227E-06	2.653144E-06	-1.324459E-05	1.327169E-06	9.802052E-07	-3.042887E-05	-2.302845E-05	8.961711E-06	3.781151E-06	2.149502E-05	1.179802E-05
-1.260935E-05	-3.588122E-06	-4.905796E-06	-8.247202E-06	-1.696171E-05	-7.098232E-06	9.875399E-07	-1.428148E-05	-1.761783E-06	-2.236214E-07	-3.066874E-05	-2.267488E-05	8.556293E-06	3.761995E-06	2.167725E-05	1.175634E-05
-1.260935E-05	-3.588122E-06	-4.905796E-06	-8.247202E-06	-1.696171E-05	-7.098232E-06	9.875399E-07	-1.428148E-05	-1.761783E-06	-2.236214E-07	-3.066874E-05	-2.267488E-05	8.556293E-06	3.761995E-06	2.167725E-05	1.175634E-05
-1.247599E-05	-3.132924E-06	-5.161668E-06	-8.081139E-06	-1.691639E-05	-7.084445E-06	-4.531774E-07	-1.413314E-05	-2.835457E-06	-1.686837E-07	-3.101307E-05	-2.270895E-05	9.70989E-06	3.479576E-06	2.209644E-05	9.627433E-06
-1.247599E-05	-3.132924E-06	-5.161668E-06	-8.081139E-06	-1.691639E-05	-7.084445E-06	-4.531774E-07	-1.413314E-05	-2.835457E-06	-1.686837E-07	-3.101307E-05	-2.270895E-05	9.70989E-06	3.479576E-06	2.209644E-05	9.627433E-06
-1.185326E-05	-2.670564E-06	-4.444472E-06	-7.44304E-06	-1.658922E-05	-6.898757E-06	-1.856877E-06	-1.385586E-05	-2.565183E-06	1.065126E-06	-3.155301E-05	-2.249692E-05	1.026993E-05	3.298953E-06	2.270573E-05	7.893287E-06
-1.185326E-05	-2.670564E-06	-4.444472E-06	-7.44304E-06	-1.658922E-05	-6.898757E-06	-1.856877E-06	-1.385586E-05	-2.565183E-06	1.065126E-06	-3.155301E-05	-2.249692E-05	1.026993E-05	3.298953E-06	2.270573E-05	7.893287E-06
-1.104866E-05	-2.772538E-06	-3.784566E-06	-7.811173E-06	-1.631434E-05	-6.456662E-06	-3.150537E-06	-1.435545E-05	-1.769259E-06	1.878391E-06	-3.157508E-05	-2.035551E-05	9.360368E-06	4.259608E-06	2.205628E-05	9.198999E-06
-1.104866E-05	-2.772538E-06	-3.784566E-06	-7.811173E-06	-1.631434E-05	-6.456662E-06	-3.150537E-06	-1.435545E-05	-1.769259E-06	1.878391E-06	-3.157508E-05	-2.035551E-05	9.360368E-06	4.259608E-06	2.205628E-05	9.198999E-06
-1.071692E-05	-3.216671E-06	-3.622301E-06	-9.025385E-06	-1.640815E-05	-6.189604E-06	-3.024229E-06	-1.531362E-05	-4.173407E-07	1.809437E-06	-3.152396E-05	-1.74702E-05	8.317185E-06	5.257008E-06	2.062567E-05	1.173123E-05
-1.071692E-05	-3.216671E-06	-3.622301E-06	-9.025385E-06	-1.640815E-05	-6.189604E-06	-3.024229E-06	-1.531362E-05	-4.173407E-07	1.809437E-06	-3.152396E-05	-1.74702E-05	8.317185E-06	5.257008E-06	2.062567E-05	1.173123E-05
-1.112324E-05	-3.285485E-06	-3.643402E-06	-9.865529E-06	-1.678871E-05	-6.140264E-06	-2.18089E-06	-1.599683E-05	1.022072E-06	2.354399E-06	-3.194671E-05	-1.536223E-05	7.54499E-06	5.192552E-06	1.881389E-05	1.303681E-05
-1.112324E-05	-3.285485E-06	-3.643402E-06	-9.865529E-06	-1.678871E-05	-6.140264E-06	-2.18089E-06	-1.599683E-05	1.022072E-06	2.354399E-06	-3.194671E-05	-1.536223E-05	7.54499E-06	5.192552E-06	1.881389E-05	1.303681E-05
-1.198203E-05	-2.673531E-06	-3.547689E-06	-9.367881E-06	-1.708477E-05	-6.02819E-06	-2.328886E-06	-1.584719E-05	1.643062E-06	3.311778E-06	-3.242823E-05	-1.416643E-05	7.230673E-06	3.708177E-06	1.824591E-05	1.325148E-05
-1.198203E-05	-2.673531E-06	-3.547689E-06	-9.367881E-06	-1.708477E-05	-6.02819E-06	-2.328886E-06	-1.584719E-05	1.643062E-06	3.311778E-06	-3.242823E-05	-1.416643E-05	7.230673E-06	3.708177E-06	1.824591E-05	1.325148E-05
-1.288962E-05	-2.044732E-06	-3.417226E-06	-7.813675E-06	-1.702731E-05	-5.838137E-06	-3.02728E-06	-1.478133E-05	2.185874E-06	3.722288E-06	-3.262487E-05	-1.368851E-05	7.625949E-06	2.843949E-06	1.886605E-05	1.326788E-05
-1.288962E-05	-2.044732E-06	-3.417226E-06	-7.813675E-06	-1.702731E-05	-5.838137E-06	-3.02728E-06	-1.478133E-05	2.185874E-06	3.722288E-06	-3.262487E-05	-1.368851E-05	7.625949E-06	2.843949E-06	1.886605E-05	1.326788E-05
-1.357429E-05	-2.479052E-06	-3.150393E-06	-6.993469E-06	-1.667304E-05	-5.488952E-06	-2.948493E-06	-1.405198E-05	2.986597E-06	3.005413E-06	-3.270453E-05	-1.388304E-05	6.975538E-06	3.860714E-06	1.944921E-05	1.325323E-05
-1.357429E-05	-2.479052E-06	-3.150393E-06	-6.993469E-06	-1.667304E-05	-5.488952E-06	-2.948493E-06	-1.405198E-05	2.986597E-06	3.005413E-06	-3.270453E-05	-1.388304E-05	6.975538E-06	3.860714E-06	1.944921E-05	1.325323E-05
-1.359328E-05	-4.01849E-06	-2.465463E-06	-8.419582E-06	-1.616894E-05	-4.915417E-06	-1.807603E-06	-1.455713E-05	1.76575E-06	2.428852E-06	-3.298038E-05	-1.46222E-05	6.177219E-06	5.243964E-06	1.807057E-05	1.293096E-05
-1.359328E-05	-4.01849E-06	-2.465463E-06	-8.419582E-06	-1.616894E-05	-4.915417E-06	-1.807603E-06	-1.455713E-05	1.76575E-06	2.428852E-06	-3.298038E-05	-1.46222E-05	6.177219E-06	5.243964E-06	1.807057E-05	1.293096E-05
-1.237323E-05	-5.291463E-06	-1.499745E-06	-1.137431E-05	-1.539601E-05	-4.620695E-06	-2.592556E-07	-1.469555E-05	-1.267752E-06	1.650702E-06	-3.39545E-05	-1.511391E-05	7.366106E-06	5.224374E-06	1.66763E-05	1.150759E-05
-1.237323E-05	-5.291463E-06	-1.499745E-06	-1.137431E-05	-1.539601E-05	-4.620695E-06	-2.592556E-07	-1.469555E-05	-1.267752E-06	1.650702E-06	-3.39545E-05	-1.511391E-05	7.366106E-06	5.224374E-06	1.66763E-05	1.150759E-05
-1.054962E-05	-5.557382E-06	-5.314931E-07	-1.388383E-05	-1.421882E-05	-5.397676E-06	1.050826E-06	-1.311552E-05	-2.588637E-06	7.719221E-07	-3.55228E-05	-1.473542E-05	8.644141E-06	3.786579E-06	1.521853E-05	1.007384E-05
-1.054962E-05	-5.557382E-06	-5.314931E-07	-1.388383E-05	-1.421882E-05	-5.397676E-06	1.050826E-06	-1.311552E-05	-2.588637E-06	7.719221E-07	-3.55228E-05	-1.473542E-05	8.644141E-06	3.786579E-06	1.521853E-05	1.007384E-05
-9.884825E-06	-5.595798E-06	2.356837E-07	-1.455966E-05	-1.320842E-05	-6.874109E-06	2.162608E-06	-1.122162E-05	-8.968344E-07	-3.225726E-07	-3.637009E-05	-1.373856E-05	9.016285E-06	2.698582E-06	1.402195E-05	1.079578E-05
-9.884825E-06	-5.595798E-06	2.356837E-07	-1.455966E-05	-1.320842E-05	-6.874109E-06	2.162608E-06	-1.122162E-05	-8.968344E-07	-3.225726E-07	-3.637009E-05	-1.373856E-05	9.016285E-06	2.698582E-06	1.402195E-05	1.079578E-05
-1.100656E-05	-5.940858E-06	4.311133E-07	-1.313321E-05	-1.359568E-05	-6.90466E-06	3.339424E-06	-1.101981E-05	-2.472671E-07	-1.222263E-06	-3.634326E-05	-1.254604E-05	8.132901E-06	3.836098E-06	1.22941E-05	1.327011E-05
-1.100656E-05	-5.940858E-06	4.311133E-07	-1.313321E-05	-1.359568E-05	-6.90466E-06	3.339424E-06	-1.101981E-05	-2.472671E-07	-1.222263E-06	-3.634326E-05	-1.254604E-05	8.132901E-06	3.836098E-06	1.22941E-05	1.327011E-05
-1.261042E-05	-6.1855E-06	-1.62703E-08	-1.06715E-05	-1.554991E-05	-4.863572E-06	3.86831E-06	-1.22909E-05	-1.564021E-06	-2.853143E-08	-3.512895E-05	-1.203652E-05	8.372618E-06	5.158404E-06	1.055676E-05	1.511271E-05
-1.261042E-05	-6.1855E-06	-1.62703E-08	-1.06715E-05	-1.554991E-05	-4.863572E-06	3.86831E-06	-1.22909E-05	-1.564021E-06	-2.853143E-08	-3.512895E-05	-1.203652E-05	8.372618E-06	5.158404E-06	1.055676E-05	1.511271E-05
-1.314676E-05	-5.899678E-06	-5.973251E-07	-8.803787E-06	-1.755295E-05	-3.132653E-06	2.729952E-06	-1.304959E-05	-3.963258E-06	1.892183E-06	-3.410515E-05	-1.275539E-05	9.341667E-06	4.929056E-06	9.962816E-06	1.416418E-05
-1.314676E-05	-5.899678E-06	-5.973251E-07	-8.803787E-06	-1.755295E-05	-3.132653E-06	2.729952E-06	-1.304959E-05	-3.963258E-06	1.892183E-06	-3.410515E-05	-1.275539E-05	9.341667E-06	4.929056E-06	9.962816E-06	1.416418E-05
-1.236376E-05	-4.972548E-06	-1.011066E-06	-8.75763E-06	-1.780443E-05	-3.221447E-06	6.532239E-07	-1.290565E-05	-6.114216E-06	6.630835E-07	-3.318319E-05	-1.593471E-05	1.000331E-05	5.103506E-06	1.014208E-05	1.25864E-05
-1.236376E-05	-4.972548E-06	-1.011066E-06	-8.75763E-06	-1.780443E-05	-3.221447E-06	6.532239E-07	-1.290565E-05	-6.114216E-06	6.630835E-07	-3.318319E-05	-1.593471E-05	1.000331E-05	5.103506E-06	1.014208E-05	1.25864E-05
-1.105826E-05	-3.428285E-06	-1.434176E-06	-1.090435E-05	-1.564718E-05	-4.591218E-06	-1.159661E-06	-1.309002E-05	-4.91316E-06	-7.423228E-07	-3.158627E-05	-1.879235E-05	1.071034E-05	5.286485E-06	1.114772E-05	1.341759E-05
-1.105826E-05	-3.428285E-06	-1.434176E-06	-1.090435E-05	-1.564718E-05	-4.591218E-06	-1.159661E-06	-1.309002E-05	-4.91316E-06	-7.423228E-07	-3.158627E-05	-1.879235E-05	1.071034E-05	5.286485E-06	1.114772E-05	1.341759E-05
-1.083074E-05	-2.274075E-06	-1.797721E-06	-1.340655E-05	-1.335431E-05	-6.035188E-06	-2.406147E-06	-1.371438E-05	-2.938912E-06	7.269525E-07	-3.207683E-05	-1.954552E-05	1.018775E-05	4.603453E-06	1.209251E-05	1.397808E-05
-1.083074E-05	-2.274075E-06	-1.797721E-06	-1.340655E-05	-1.335431E-05	-6.035188E-06	-2.406147E-06	-1.371438E-05	-2.938912E-06	7.269525E-07	-3.207683E-05	-1.954552E-05	1.018775E-05	4.603453E-06	1.209251E-05	1.397808E-05
-1.232083E-05	-2.626271E-06	-1.823371E-06	-1.443921E-05	-1.381683E-05	-6.607E-06	-3.225662E-06	-1.428975E-05	-2.648551E-06	3.188393E-06	-3.412231E-05	-1.85221E-05	9.40564E-06	4.517702E-06	1.180251E-05	1.23347E-05
-1.232083E-05	-2.626271E-06	-1.823371E-06	-1.443921E-05	-1.381683E-05	-6.607E-06	-3.225662E-06	-1.428975E-05	-2.648551E-06	3.188393E-06	-3.412231E-05	-1.85221E-05	9.40564E-06	4.517702E-06	1.180251E-05	1.23347E-05
-1.36094E-05	-3.307614E-06	-1.734818E-06	-1.486595E-05	-1.58364E-05	-6.841697E-06	-4.327868E-06	-1.482169E-05	-2.689724E-06	3.558218E-06	-3.345327E-05	-1.612326E-05	8.545394E-06	5.525129E-06	1.024787E-05	9.829721E-06
-1.36094E-05	-3.307614E-06	-1.734818E-06	-1.486595E-05	-1.58364E-05	-6.841697E-06	-4.327868E-06	-1.482169E-05	-2.689724E-06	3.558218E-06	-3.345327E-05	-1.612326E-05	8.545394E-06	5.525129E-06	1.024787E-05	9.829721E-06
-1.366022E-05	-2.759528E-06	-1.974127E-06	-1.461109E-05	-1.654937E-05	-7.20749E-06	-5.027744E-06	-1.520502E-05	-2.706521E-06	3.489726E-06	-3.223284E-05	-1.437581E-05	8.870725E-06	5.736859E-06	9.620562E-06	8.883503E-06
-1.366022E-05	-2.759528E-06	-1.974127E-06	-1.461109E-05	-1.654937E-05	-7.20749E-06	-5.027744E-06	-1.520502E-05	-2.706521E-06	3.489726E-06	-3.223284E-05	-1.437581E-05	8.870725E-06	5.736859E-06	9.620562E-06	8.883503E-06
-1.361266E-05	-1.654363E-06	-2.705895E-06	-1.285427E-05	-1.566267E-05	-7.191525E-06	-3.964415E-06	-1.536163E-05	-1.753048E-06	5.571183E-06	-3.153838E-05	-1.408521E-05	8.643201E-06	4.543849E-06	9.809328E-06	1.042041E-05
-1.361266E-05	-1.654363E-06	-2.705895E-06	-1.285427E-05	-1.566267E-05	-7.191525E-06	-3.964415E-06	-1.536163E-05	-1.753048E-06	5.571183E-06	-3.153838E-05	-1.408521E-05	8.643201E-06	4.543849E-06	9.809328E-06	1.042041E-05
-1.375283E-05	-1.180414E-06	-3.943342E-06	-1.138061E-05	-1.457917E-05	-6.957391E-06	-2.300126E-06	-1.538839E-05	-1.203461E-06	7.975597E-06	-3.06039E-05	-1.477295E-05	8.340568E-06	3.341838E-06	1.075779E-05	1.200497E-05
-1.375283E-05	-1.180414E-06	-3.943342E-06	-1.138061E-05	-1.457917E-05	-6.957391E-06	-2.300126E-06	-1.538839E-05	-1.203461E-06	7.975597E-06	-3.06039E-05	-1.477295E-05	8.340568E-06	3.341838E-06	1.075779E-05	1.200497E-05
-1.339162E-05	-1.220085E-06	-5.361235E-06	-1.146852E-05	-1.472203E-05	-7.007267E-06	-1.746089E-06	-1.498631E-05	5.404582E-07	7.13246E-06	-3.040602E-05	-1.571528E-05	8.324235E-06	2.991758E-06	1.131535E-05	1.141894E-05
-1.339162E-05	-1.220085E-06	-5.361235E-06	-1.146852E-05	-1.472203E-05	-7.007267E-06	-1.746089E-06	-1.498631E-05	5.404582E-07	7.13246E-06	-3.040602E-05	-1.571528E-05	8.324235E-06	2.991758E-06	1.131535E-05	1.141894E-05
-1.268316E-05	-1.488158E-06	-5.958148E-06	-1.207511E-05	-1.614827E-05	-7.255451E-06	-2.147758E-06	-1.411956E-05	2.172099E-06	4.388683E-06	-3.016909E-05	-1.722668E-05	8.677629E-06	3.634673E-06	1.00388E-05	9.034708E-06
-1.268316E-05	-1.488158E-06	-5.958148E-06	-1.207511E-05	-1.614827E-05	-7.255451E-06	-2.147758E-06	-1.411956E-05	2.172099E-06	4.388683E-06	-3.016909E-05	-1.722668E-05	8.677629E-06	3.634673E-06	1.00388E-05	9.034708E-06
-1.25704E-05	-2.458371E-06	-4.929932E-06	-1.233154E-05	-1.699926E-05	-7.444557E-06	-2.613243E-06	-1.363094E-05	1.931835E-06	3.178388E-06	-2.986877E-05	-1.768359E-05	8.02077E-06	4.378818E-06	8.308913E-06	7.680118E-06
-1.25704E-05	-2.458371E-06	-4.929932E-06	-1.233154E-05	-1.699926E-05	-7.444557E-06	-2.613243E-06	-1.363094E-05	1.931835E-06	3.178388E-06	-2.986877E-05	-1.768359E-05	8.02077E-06	4.378818E-06	8.308913E-06	7.680118E-06
-1.321749E-05	-3.950642E-06	-3.45799E-06	-1.241605E-05	-1.633901E-05	-7.441094E-06	-3.10631E-06	-1.390506E-05	1.782568E-06	2.679694E-06	-2.901804E-05	-1.814396E-05	6.804095E-06	5.415778E-06	7.529869E-06	8.078621E-06
-1.321749E-05	-3.950642E-06	-3.45799E-06	-1.241605E-05	-1.633901E-05	-7.441094E-06	-3.10631E-06	-1.390506E-05	1.782568E-06	2.679694E-06	-2.901804E-05	-1.814396E-05	6.804095E-06	5.415778E-06	7.529869E-06	8.078621E-06
-1.389399E-05	-5.810713E-06	-3.533989E-06	-1.282214E-05	-1.53031E-05	-7.422918E-06	-3.860406E-06	-1.447695E-05	2.401751E-06	1.856424E-06	-2.819646E-05	-2.015458E-05	6.925202E-06	6.182815E-06	7.730892E-06	9.678841E-06
-1.389399E-05	-5.810713E-06	-3.533989E-06	-1.282214E-05	-1.53031E-05	-7.422918E-06	-3.860406E-06	-1.447695E-05	2.401751E-06	1.856424E-06	-2.819646E-05	-2.015458E-05	6.925202E-06	6.182815E-06	7.730892E-06	9.678841E-06
-1.420333E-05	-9.220927E-06	-4.891703E-06	-1.361059E-05	-1.473417E-05	-7.806704E-06	-4.063705E-06	-1.506078E-05	1.530267E-06	1.654022E-06	-2.878314E-05	-2.197308E-05	7.460232E-06	5.955751E-06	8.02569E-06	1.106608E-05
-1.420333E-05	-9.220927E-06	-4.891703E-06	-1.361059E-05	-1.473417E-05	-7.806704E-06	-4.063705E-06	-1.506078E-05	1.530267E-06	1.654022E-06	-2.878314E-05	-2.197308E-05	7.460232E-06	5.955751E-06	8.02569E-06	1.106608E-05
-1.394951E-05	-1.258116E-05	-5.834904E-06	-1.424053E-05	-1.501846E-05	-8.123413E-06	-3.524997E-06	-1.526762E-05	-1.272832E-06	1.580306E-06	-2.996851E-05	-2.194712E-05	8.21412E-06	4.937684E-06	9.198472E-06	1.082496E-05
-1.394951E-05	-1.258116E-05	-5.834904E-06	-1.424053E-05	-1.501846E-05	-8.123413E-06	-3.524997E-06	-1.526762E-05	-1.272832E-06	1.580306E-06	-2.996851E-05	-2.194712E-05	8.21412E-06	4.937684E-06	9.198472E-06	1.082496E-05
-1.311077E-05	-1.12346E-05	-5.487669E-06	-1.416196E-05	-1.646373E-05	-7.412182E-06	-3.301119E-06	-1.464671E-05	-3.065252E-06	1.424802E-06	-3.038582E-05	-2.0829E-05	8.758689E-06	5.03635E-06	1.155507E-05	1.025863E-05
-1.311077E-05	-1.12346E-05	-5.487669E-06	-1.416196E-05	-1.646373E-05	-7.412182E-06	-3.301119E-06	-1.464671E-05	-3.065252E-06	1.424802E-06	-3.038582E-05	-2.0829E-05	8.758689E-06	5.03635E-06	1.155507E-05	1.025863E-05
-1.255177E-05	-4.838508E-06	-3.910557E-06	-1.348669E-05	-1.806407E-05	-6.37226E-06	-3.258844E-06	-1.382455E-05	-2.611077E-06	2.073895E-06	-3.049281E-05	-1.899886E-05	8.915842E-06	6.202757E-06	1.298934E-05	1.080789E-05
-1.255177E-05	-4.838508E-06	-3.910557E-06	-1.348669E-05	-1.806407E-05	-6.37226E-06	-3.258844E-06	-1.382455E-05	-2.611077E-06	2.073895E-06	-3.049281E-05	-1.899886E-05	8.915842E-06	6.202757E-06	1.298934E-05	1.080789E-05
-1.262798E-05	2.023223E-06	-2.016856E-06	-1.2691E-05	-1.851359E-05	-6.256324E-06	-2.432158E-06	-1.379087E-05	1.485694E-07	2.706095E-06	-3.092164E-05	-1.828228E-05	8.015286E-06	6.965766E-06	1.222176E-05	1.186942E-05
-1.262798E-05	2.023223E-06	-2.016856E-06	-1.2691E-05	-1.851359E-05	-6.256324E-06	-2.432158E-06	-1.379087E-05	1.485694E-07	2.706095E-06	-3.092164E-05	-1.828228E-05	8.015286E-06	6.965766E-06	1.222176E-05	1.186942E-05
-1.22789E-05	5.785953E-06	-9.364753E-07	-1.193008E-05	-1.79704E-05	-6.735514E-06	-1.032886E-06	-1.441996E-05	3.193712E-06	3.519783E-06	-3.174615E-05	-1.892112E-05	7.630711E-06	7.322953E-06	1.106311E-05	1.186417E-05
-1.22789E-05	5.785953E-06	-9.364753E-07	-1.193008E-05	-1.79704E-05	-6.735514E-06	-1.032886E-06	-1.441996E-05	3.193712E-06	3.519783E-06	-3.174615E-05	-1.892112E-05	7.630711E-06	7.322953E-06	1.106311E-05	1.186417E-05
-1.139425E-05	6.183396E-06	-5.885976E-07	-1.127147E-05	-1.729628E-05	-7.168988E-06	-1.684431E-07	-1.47636E-05	5.472607E-06	4.169919E-06	-3.250692E-05	-1.832258E-05	7.727446E-06	7.095491E-06	1.043654E-05	1.164776E-05
-1.139425E-05	6.183396E-06	-5.885976E-07	-1.127147E-05	-1.729628E-05	-7.168988E-06	-1.684431E-07	-1.47636E-05	5.472607E-06	4.169919E-06	-3.250692E-05	-1.832258E-05	7.727446E-06	7.095491E-06	1.043654E-05	1.164776E-05
-1.103508E-05	5.015978E-06	-4.284591E-07	-1.068489E-05	-1.705024E-05	-7.428446E-06	-3.061991E-07	-1.444198E-05	6.071223E-06	3.805988E-06	-3.177672E-05	-1.61318E-05	7.909672E-06	5.793888E-06	9.470659E-06	1.21728E-05
-1.103508E-05	5.015978E-06	-4.284591E-07	-1.068489E-05	-1.705024E-05	-7.428446E-06	-3.061991E-07	-1.444198E-05	6.071223E-06	3.805988E-06	-3.177672E-05	-1.61318E-05	7.909672E-06	5.793888E-06	9.470659E-06	1.21728E-05
-1.120221E-05	3.865784E-06	-9.808691E-07	-9.713442E-06	-1.737411E-05	-7.260856E-06	-4.113344E-07	-1.423124E-05	4.071077E-06	3.28332E-06	-3.036729E-05	-1.491026E-05	7.615714E-06	4.690227E-06	7.903131E-06	1.303925E-05
-1.120221E-05	3.865784E-06	-9.808691E-07	-9.713442E-06	-1.737411E-05	-7.260856E-06	-4.113344E-07	-1.423124E-05	4.071077E-06	3.28332E-06	-3.036729E-05	-1.491026E-05	7.615714E-06	4.690227E-06	7.903131E-06	1.303925E-05
-1.135977E-05	2.4486E-06	-2.468079E-06	-8.361349E-06	-1.782347E-05	-6.855845E-06	6.465272E-07	-1.458646E-05	1.203241E-06	3.781133E-06	-3.018946E-05	-1.517749E-05	6.463045E-06	4.458306E-06	7.045689E-06	1.331854E-05
-1.135977E-05	2.4486E-06	-2.468079E-06	-8.361349E-06	-1.782347E-05	-6.855845E-06	6.465272E-07	-1.458646E-05	1.203241E-06	3.781133E-06	-3.018946E-05	-1.517749E-05	6.463045E-06	4.458306E-06	7.045689E-06	1.331854E-05
-1.139712E-05	-8.146675E-07	-3.874216E-06	-7.519806E-06	-1.77548E-05	-6.665473E-06	2.238329E-06	-1.499133E-05	6.652791E-07	3.406938E-06	-3.111834E-05	-1.636346E-05	5.306781E-06	5.18829E-06	6.687893E-06	1.327441E-05
-1.139712E-05	-8.146675E-07	-3.874216E-06	-7.519806E-06	-1.77548E-05	-6.665473E-06	2.238329E-06	-1.499133E-05	6.652791E-07	3.406938E-06	-3.111834E-05	-1.636346E-05	5.306781E-06	5.18829E-06	6.687893E-06	1.327441E-05
-1.106787E-05	-6.543492E-06	-4.449139E-06	-7.816863E-06	-1.714169E-05	-6.269323E-06	2.527092E-06	-1.531282E-05	2.08031E-06	2.216815E-06	-3.209373E-05	-1.807999E-05	5.850395E-06	6.515359E-06	6.705356E-06	1.376796E-05
-1.106787E-05	-6.543492E-06	-4.449139E-06	-7.816863E-06	-1.714169E-05	-6.269323E-06	2.527092E-06	-1.531282E-05	2.08031E-06	2.216815E-06	-3.209373E-05	-1.807999E-05	5.850395E-06	6.515359E-06	6.705356E-06	1.376796E-05
-1.054609E-05	-1.294411E-05	-4.065244E-06	-8.912053E-06	-1.677687E-05	-5.338922E-06	9.814328E-07	-1.547735E-05	2.52947E-06	1.481071E-06	-3.146679E-05	-1.828764E-05	6.588284E-06	5.948526E-06	7.940206E-06	1.388068E-05
-1.054609E-05	-1.294411E-05	-4.065244E-06	-8.912053E-06	-1.677687E-05	-5.338922E-06	9.814328E-07	-1.547735E-05	2.52947E-06	1.481071E-06	-3.146679E-05	-1.828764E-05	6.588284E-06	5.948526E-06	7.940206E-06	1.388068E-05
-1.058966E-05	-1.732361E-05	-2.930391E-06	-9.98223E-06	-1.733658E-05	-4.561366E-06	-8.369834E-07	-1.497853E-05	1.572795E-06	1.224624E-06	-3.03851E-05	-1.767919E-05	7.132445E-06	4.094307E-06	9.094428E-06	1.334981E-05
-1.058966E-05	-1.732361E-05	-2.930391E-06	-9.98223E-06	-1.733658E-05	-4.561366E-06	-8.369834E-07	-1.497853E-05	1.572795E-06	1.224624E-06	-3.03851E-05	-1.767919E-05	7.132445E-06	4.094307E-06	9.094428E-06	1.334981E-05
-1.0729E-05	-1.733506E-05	-2.089492E-06	-1.031725E-05	-1.767699E-05	-4.435586E-06	-1.562994E-06	-1.382273E-05	4.518739E-07	1.706823E-06	-3.037609E-05	-1.829472E-05	7.865598E-06	4.237959E-06	9.059306E-06	1.261106E-05
-1.0729E-05	-1.733506E-05	-2.089492E-06	-1.031725E-05	-1.767699E-05	-4.435586E-06	-1.562994E-06	-1.382273E-05	4.518739E-07	1.706823E-06	-3.037609E-05	-1.829472E-05	7.865598E-06	4.237959E-06	9.059306E-06	1.261106E-05
-9.863695E-06	-1.171985E-05	-2.128413E-06	-9.668067E-06	-1.604671E-05	-4.864298E-06	-1.494959E-06	-1.258004E-05	-7.296716E-07	2.240493E-06	-3.093854E-05	-2.026532E-05	8.736951E-06	5.883323E-06	7.931063E-06	1.29825E-05
-9.863695E-06	-1.171985E-05	-2.128413E-06	-9.668067E-06	-1.604671E-05	-4.864298E-06	-1.494959E-06	-1.258004E-05	-7.296716E-07	2.240493E-06	-3.093854E-05	-2.026532E-05	8.736951E-06	5.883323E-06	7.931063E-06	1.29825E-05
-8.837664E-06	-4.411401E-06	-1.844244E-06	-8.692134E-06	-1.368526E-05	-5.469321E-06	-1.92555E-06	-1.252671E-05	-2.087095E-06	2.255171E-06	-3.085682E-05	-2.151538E-05	9.526946E-06	6.622062E-06	8.417682E-06	1.356725E-05
-8.837664E-06	-4.411401E-06	-1.844244E-06	-8.692134E-06	-1.368526E-05	-5.469321E-06	-1.92555E-06	-1.252671E-05	-2.087095E-06	2.255171E-06	-3.085682E-05	-2.151538E-05	9.526946E-06	6.622062E-06	8.417682E-06	1.356725E-05
-8.722383E-06	-1.160289E-06	-9.005678E-07	-8.261321E-06	-1.306843E-05	-5.500999E-06	-3.37008E-06	-1.402E-05	-4.374365E-06	3.308163E-06	-3.036874E-05	-2.168206E-05	8.275611E-06	5.489299E-06	1.067783E-05	1.358199E-05
-8.722383E-06	-1.160289E-06	-9.005678E-07	-8.261321E-06	-1.306843E-05	-5.500999E-06	-3.37008E-06	-1.402E-05	-4.374365E-06	3.308163E-06	-3.036874E-05	-2.168206E-05	8.275611E-06	5.489299E-06	1.067783E-05	1.358199E-05
-8.829917E-06	-8.421833E-07	-7.436888E-07	-8.017078E-06	-1.376335E-05	-4.794101E-06	-4.721086E-06	-1.519833E-05	-4.765916E-06	4.561064E-06	-3.11588E-05	-2.065005E-05	6.279515E-06	3.349161E-06	1.338435E-05	1.385298E-05
-8.829917E-06	-8.421833E-07	-7.436888E-07	-8.017078E-06	-1.376335E-05	-4.794101E-06	-4.721086E-06	-1.519833E-05	-4.765916E-06	4.561064E-06	-3.11588E-05	-2.065005E-05	6.279515E-06	3.349161E-06	1.338435E-05	1.385298E-05
-9.007382E-06	-3.347427E-07	-1.41444E-06	-7.102031E-06	-1.408745E-05	-4.362021E-06	-4.89059E-06	-1.561058E-05	-2.042819E-06	5.628591E-06	-3.120301E-05	-1.928186E-05	6.293243E-06	4.106463E-06	1.388908E-05	1.371388E-05
