-1.341996E-05	-5.237293E-06	-2.380394E-06	-1.617971E-05	-1.594605E-05	-5.539741E-06	-1.493473E-07	3.01134E-06	1.615176E-06	2.620216E-06	-3.187372E-05	-2.120169E-05	6.439483E-06	6.455342E-06	9.79523E-06	1.47754E-05
-1.341996E-05	-5.237293E-06	-2.380394E-06	-1.617971E-05	-1.594605E-05	-5.539741E-06	-1.493473E-07	3.01134E-06	1.615176E-06	2.620216E-06	-3.187372E-05	-2.120169E-05	6.439483E-06	6.455342E-06	9.79523E-06	1.47754E-05
-1.208299E-05	-5.716361E-06	-1.251591E-06	-1.187627E-05	-1.413501E-05	-5.172969E-06	-1.213593E-06	3.032844E-06	2.593062E-06	1.045138E-06	-3.359669E-05	-1.969509E-05	8.572774E-06	4.50626E-06	1.096452E-05	1.258039E-05
-1.208299E-05	-5.716361E-06	-1.251591E-06	-1.187627E-05	-1.413501E-05	-5.172969E-06	-1.213593E-06	3.032844E-06	2.593062E-06	1.045138E-06	-3.359669E-05	-1.969509E-05	8.572774E-06	4.50626E-06	1.096452E-05	1.258039E-05
-1.099022E-05	-5.258971E-06	-9.341941E-07	-4.512867E-06	-1.282862E-05	-5.807407E-06	-1.886429E-06	3.126337E-07	7.051045E-07	1.260858E-06	-3.486289E-05	-1.803595E-05	8.55184E-06	3.623696E-06	1.179429E-05	1.081138E-05
-1.099022E-05	-5.258971E-06	-9.341941E-07	-4.512867E-06	-1.282862E-05	-5.807407E-06	-1.886429E-06	3.126337E-07	7.051045E-07	1.260858E-06	-3.486289E-05	-1.803595E-05	8.55184E-06	3.623696E-06	1.179429E-05	1.081138E-05
-1.081867E-05	-4.127426E-06	-2.306256E-06	2.592809E-06	-1.319147E-05	-7.124001E-06	-1.020213E-06	-2.993138E-06	-1.735655E-06	1.924093E-06	-3.490728E-05	-1.692136E-05	6.722515E-06	3.905313E-06	1.183418E-05	1.275537E-05
-1.081867E-05	-4.127426E-06	-2.306256E-06	2.592809E-06	-1.319147E-05	-7.124001E-06	-1.020213E-06	-2.993138E-06	-1.735655E-06	1.924093E-06	-3.490728E-05	-1.692136E-05	6.722515E-06	3.905313E-06	1.183418E-05	1.275537E-05
-1.089383E-05	-3.44504E-06	-3.496548E-06	6.613056E-06	-1.378643E-05	-8.246118E-06	4.766176E-08	-5.038924E-06	-3.013768E-06	2.116214E-06	-3.293691E-05	-1.606437E-05	6.577621E-06	3.815094E-06	1.083869E-05	1.336968E-05
-1.089383E-05	-3.44504E-06	-3.496548E-06	6.613056E-06	-1.378643E-05	-8.246118E-06	4.766176E-08	-5.038924E-06	-3.013768E-06	2.116214E-06	-3.293691E-05	-1.606437E-05	6.577621E-06	3.815094E-06	1.083869E-05	1.336968E-05
-1.100356E-05	-3.716702E-06	-3.096213E-06	6.931662E-06	-1.334122E-05	-8.895743E-06	1.159071E-08	-5.482613E-06	-3.427647E-06	3.402819E-06	-3.227504E-05	-1.403006E-05	7.225266E-06	4.706758E-06	1.099217E-05	1.203457E-05
-1.100356E-05	-3.716702E-06	-3.096213E-06	6.931662E-06	-1.334122E-05	-8.895743E-06	1.159071E-08	-5.482613E-06	-3.427647E-06	3.402819E-06	-3.227504E-05	-1.403006E-05	7.225266E-06	4.706758E-06	1.099217E-05	1.203457E-05
-1.159735E-05	-4.024072E-06	-2.151978E-06	4.796873E-06	-1.274125E-05	-9.410443E-06	-9.171762E-07	-5.185974E-06	-2.760231E-06	5.374684E-06	-3.339415E-05	-1.32496E-05	7.418613E-06	5.220771E-06	1.267577E-05	1.057998E-05
-1.159735E-05	-4.024072E-06	-2.151978E-06	4.796873E-06	-1.274125E-05	-9.410443E-06	-9.171762E-07	-5.185974E-06	-2.760231E-06	5.374684E-06	-3.339415E-05	-1.32496E-05	7.418613E-06	5.220771E-06	1.267577E-05	1.057998E-05
-1.186744E-05	-3.696126E-06	-1.660871E-06	3.275805E-06	-1.261132E-05	-9.554156E-06	-2.330144E-06	-4.67501E-06	-2.584171E-06	6.993675E-06	-3.394194E-05	-1.435855E-05	7.551737E-06	5.035705E-06	1.416458E-05	1.218695E-05
-1.186744E-05	-3.696126E-06	-1.660871E-06	3.275805E-06	-1.261132E-05	-9.554156E-06	-2.330144E-06	-4.67501E-06	-2.584171E-06	6.993675E-06	-3.394194E-05	-1.435855E-05	7.551737E-06	5.035705E-06	1.416458E-05	1.218695E-05
-1.116835E-05	-3.332124E-06	-1.348596E-06	2.814884E-06	-1.293439E-05	-9.109858E-06	-3.239548E-06	-4.549016E-06	-3.957283E-06	6.349999E-06	-3.329412E-05	-1.632073E-05	7.389554E-06	4.783858E-06	1.341499E-05	1.336917E-05
-1.116835E-05	-3.332124E-06	-1.348596E-06	2.814884E-06	-1.293439E-05	-9.109858E-06	-3.239548E-06	-4.549016E-06	-3.957283E-06	6.349999E-06	-3.329412E-05	-1.632073E-05	7.389554E-06	4.783858E-06	1.341499E-05	1.336917E-05
-1.023609E-05	-3.611632E-06	-1.236516E-06	9.853916E-07	-1.371349E-05	-8.433412E-06	-2.757026E-06	-5.329424E-06	-5.297143E-06	5.090926E-06	-3.149585E-05	-1.734251E-05	6.563708E-06	4.458959E-06	1.123882E-05	1.261488E-05
-1.023609E-05	-3.611632E-06	-1.236516E-06	9.853916E-07	-1.371349E-05	-8.433412E-06	-2.757026E-06	-5.329424E-06	-5.297143E-06	5.090926E-06	-3.149585E-05	-1.734251E-05	6.563708E-06	4.458959E-06	1.123882E-05	1.261488E-05
-9.916171E-06	-4.062751E-06	-2.14081E-06	-2.719561E-06	-1.464597E-05	-7.813926E-06	-1.725817E-06	-6.501079E-06	-5.01089E-06	4.330799E-06	-2.982022E-05	-1.74471E-05	6.994752E-06	4.961415E-06	9.786108E-06	1.135696E-05
-9.916171E-06	-4.062751E-06	-2.14081E-06	-2.719561E-06	-1.464597E-05	-7.813926E-06	-1.725817E-06	-6.501079E-06	-5.01089E-06	4.330799E-06	-2.982022E-05	-1.74471E-05	6.994752E-06	4.961415E-06	9.786108E-06	1.135696E-05
-1.027845E-05	-3.623201E-06	-3.453888E-06	-6.216645E-06	-1.551573E-05	-7.290226E-06	-1.461289E-06	-7.531728E-06	-2.937848E-06	3.004545E-06	-2.830824E-05	-1.720525E-05	6.148193E-06	4.646203E-06	9.537329E-06	1.071314E-05
-1.027845E-05	-3.623201E-06	-3.453888E-06	-6.216645E-06	-1.551573E-05	-7.290226E-06	-1.461289E-06	-7.531728E-06	-2.937848E-06	3.004545E-06	-2.830824E-05	-1.720525E-05	6.148193E-06	4.646203E-06	9.537329E-06	1.071314E-05
-1.097904E-05	-1.734041E-06	-3.707132E-06	-7.32911E-06	-1.628174E-05	-7.074508E-06	-2.340304E-06	-8.23473E-06	-2.342274E-06	1.425576E-06	-2.803895E-05	-1.670531E-05	5.047953E-06	3.428793E-06	1.057543E-05	1.045011E-05
-1.097904E-05	-1.734041E-06	-3.707132E-06	-7.32911E-06	-1.628174E-05	-7.074508E-06	-2.340304E-06	-8.23473E-06	-2.342274E-06	1.425576E-06	-2.803895E-05	-1.670531E-05	5.047953E-06	3.428793E-06	1.057543E-05	1.045011E-05
-1.180603E-05	1.090407E-06	-3.381928E-06	-6.186029E-06	-1.66145E-05	-7.583272E-06	-4.072794E-06	-8.014866E-06	-4.039681E-06	1.607142E-06	-2.894149E-05	-1.548528E-05	5.540775E-06	2.481745E-06	1.182243E-05	1.034063E-05
-1.180603E-05	1.090407E-06	-3.381928E-06	-6.186029E-06	-1.66145E-05	-7.583272E-06	-4.072794E-06	-8.014866E-06	-4.039681E-06	1.607142E-06	-2.894149E-05	-1.548528E-05	5.540775E-06	2.481745E-06	1.182243E-05	1.034063E-05
-1.216254E-05	3.210939E-06	-3.325378E-06	-5.291807E-06	-1.658187E-05	-8.689643E-06	-5.583137E-06	-7.112515E-06	-5.521274E-06	2.417045E-06	-2.978986E-05	-1.49684E-05	6.289297E-06	3.932947E-06	1.300707E-05	1.145639E-05
-1.216254E-05	3.210939E-06	-3.325378E-06	-5.291807E-06	-1.658187E-05	-8.689643E-06	-5.583137E-06	-7.112515E-06	-5.521274E-06	2.417045E-06	-2.978986E-05	-1.49684E-05	6.289297E-06	3.932947E-06	1.300707E-05	1.145639E-05
-1.138909E-05	3.148054E-06	-2.97769E-06	-6.59874E-06	-1.667685E-05	-9.635268E-06	-5.644215E-06	-6.992609E-06	-4.7952E-06	2.763131E-06	-2.928941E-05	-1.661205E-05	5.727913E-06	6.812621E-06	1.421974E-05	1.351988E-05
-1.138909E-05	3.148054E-06	-2.97769E-06	-6.59874E-06	-1.667685E-05	-9.635268E-06	-5.644215E-06	-6.992609E-06	-4.7952E-06	2.763131E-06	-2.928941E-05	-1.661205E-05	5.727913E-06	6.812621E-06	1.421974E-05	1.351988E-05
-1.026681E-05	1.286276E-06	-2.180842E-06	-9.039923E-06	-1.658097E-05	-9.952352E-06	-4.466894E-06	-8.174444E-06	-2.499386E-06	3.656445E-06	-2.806723E-05	-1.859314E-05	4.870845E-06	8.973107E-06	1.594023E-05	1.552742E-05
-1.026681E-05	1.286276E-06	-2.180842E-06	-9.039923E-06	-1.658097E-05	-9.952352E-06	-4.466894E-06	-8.174444E-06	-2.499386E-06	3.656445E-06	-2.806723E-05	-1.859314E-05	4.870845E-06	8.973107E-06	1.594023E-05	1.552742E-05
-1.005771E-05	-1.000108E-06	-1.82152E-06	-1.005517E-05	-1.61037E-05	-9.567668E-06	-2.931118E-06	-9.681418E-06	3.637634E-07	4.157744E-06	-2.809455E-05	-2.007485E-05	4.552385E-06	9.105345E-06	1.714558E-05	1.557672E-05
-1.005771E-05	-1.000108E-06	-1.82152E-06	-1.005517E-05	-1.61037E-05	-9.567668E-06	-2.931118E-06	-9.681418E-06	3.637634E-07	4.157744E-06	-2.809455E-05	-2.007485E-05	4.552385E-06	9.105345E-06	1.714558E-05	1.557672E-05
-1.066429E-05	-3.185545E-06	-2.630914E-06	-8.442477E-06	-1.615776E-05	-8.525193E-06	-1.189737E-06	-1.050776E-05	2.653194E-06	3.338186E-06	-2.999313E-05	-1.991001E-05	3.657965E-06	7.150259E-06	1.661256E-05	1.494008E-05
-1.066429E-05	-3.185545E-06	-2.630914E-06	-8.442477E-06	-1.615776E-05	-8.525193E-06	-1.189737E-06	-1.050776E-05	2.653194E-06	3.338186E-06	-2.999313E-05	-1.991001E-05	3.657965E-06	7.150259E-06	1.661256E-05	1.494008E-05
-1.121631E-05	-4.990534E-06	-4.273447E-06	-4.895605E-06	-1.690396E-05	-7.389915E-06	2.471121E-07	-1.069934E-05	3.238091E-06	1.971024E-06	-3.055147E-05	-1.859385E-05	3.169724E-06	4.250881E-06	1.488651E-05	1.487157E-05
-1.121631E-05	-4.990534E-06	-4.273447E-06	-4.895605E-06	-1.690396E-05	-7.389915E-06	2.471121E-07	-1.069934E-05	3.238091E-06	1.971024E-06	-3.055147E-05	-1.859385E-05	3.169724E-06	4.250881E-06	1.488651E-05	1.487157E-05
-1.114856E-05	-5.629443E-06	-5.418045E-06	-1.058716E-06	-1.74222E-05	-6.803003E-06	2.913043E-07	-1.102828E-05	3.232971E-06	5.226702E-07	-2.882726E-05	-1.711853E-05	3.394288E-06	2.45037E-06	1.226266E-05	1.62222E-05
-1.114856E-05	-5.629443E-06	-5.418045E-06	-1.058716E-06	-1.74222E-05	-6.803003E-06	2.913043E-07	-1.102828E-05	3.232971E-06	5.226702E-07	-2.882726E-05	-1.711853E-05	3.394288E-06	2.45037E-06	1.226266E-05	1.62222E-05
-1.05456E-05	-4.764119E-06	-5.066544E-06	1.842061E-06	-1.738101E-05	-6.572236E-06	-1.075168E-06	-1.189623E-05	2.898114E-06	-2.646768E-07	-2.756644E-05	-1.709866E-05	3.139381E-06	3.021935E-06	1.034453E-05	1.720108E-05
-1.05456E-05	-4.764119E-06	-5.066544E-06	1.842061E-06	-1.738101E-05	-6.572236E-06	-1.075168E-06	-1.189623E-05	2.898114E-06	-2.646768E-07	-2.756644E-05	-1.709866E-05	3.139381E-06	3.021935E-06	1.034453E-05	1.720108E-05
-1.025727E-05	-3.459492E-06	-3.931793E-06	3.257912E-06	-1.702765E-05	-6.331897E-06	-2.392345E-06	-1.319652E-05	2.925351E-06	-8.290635E-08	-2.77807E-05	-1.791485E-05	2.504877E-06	4.779679E-06	9.992827E-06	1.768542E-05
-1.025727E-05	-3.459492E-06	-3.931793E-06	3.257912E-06	-1.702765E-05	-6.331897E-06	-2.392345E-06	-1.319652E-05	2.925351E-06	-8.290635E-08	-2.77807E-05	-1.791485E-05	2.504877E-06	4.779679E-06	9.992827E-06	1.768542E-05
-1.081198E-05	-3.221786E-06	-3.579496E-06	2.627877E-06	-1.645991E-05	-6.199254E-06	-2.275467E-06	-1.479492E-05	3.678019E-06	-2.413559E-07	-2.853327E-05	-1.910311E-05	2.80806E-06	6.198029E-06	1.037544E-05	1.91277E-05
-1.081198E-05	-3.221786E-06	-3.579496E-06	2.627877E-06	-1.645991E-05	-6.199254E-06	-2.275467E-06	-1.479492E-05	3.678019E-06	-2.413559E-07	-2.853327E-05	-1.910311E-05	2.80806E-06	6.198029E-06	1.037544E-05	1.91277E-05
-1.126676E-05	-4.090195E-06	-4.227722E-06	-2.347948E-07	-1.565432E-05	-6.226656E-06	-1.071561E-06	-1.65465E-05	4.737238E-06	-4.14559E-08	-3.006691E-05	-2.034806E-05	4.663741E-06	7.321795E-06	1.047004E-05	2.012495E-05
-1.126676E-05	-4.090195E-06	-4.227722E-06	-2.347948E-07	-1.565432E-05	-6.226656E-06	-1.071561E-06	-1.65465E-05	4.737238E-06	-4.14559E-08	-3.006691E-05	-2.034806E-05	4.663741E-06	7.321795E-06	1.047004E-05	2.012495E-05
-1.090291E-05	-5.138812E-06	-4.999465E-06	-4.038482E-06	-1.481517E-05	-6.357545E-06	-2.134614E-08	-1.779379E-05	3.247385E-06	4.166607E-07	-3.166919E-05	-2.025693E-05	6.903036E-06	8.064753E-06	9.455476E-06	1.972057E-05
-1.090291E-05	-5.138812E-06	-4.999465E-06	-4.038482E-06	-1.481517E-05	-6.357545E-06	-2.134614E-08	-1.779379E-05	3.247385E-06	4.166607E-07	-3.166919E-05	-2.025693E-05	6.903036E-06	8.064753E-06	9.455476E-06	1.972057E-05
-1.053957E-05	-5.910856E-06	-5.433574E-06	-6.736026E-06	-1.434287E-05	-6.655322E-06	4.27975E-07	-1.777204E-05	-5.982247E-07	1.199013E-06	-3.208173E-05	-1.785984E-05	7.79979E-06	7.730549E-06	1.028545E-05	1.831407E-05
-1.053957E-05	-5.910856E-06	-5.433574E-06	-6.736026E-06	-1.434287E-05	-6.655322E-06	4.27975E-07	-1.777204E-05	-5.982247E-07	1.199013E-06	-3.208173E-05	-1.785984E-05	7.79979E-06	7.730549E-06	1.028545E-05	1.831407E-05
-1.065819E-05	-5.940034E-06	-4.904161E-06	-7.603001E-06	-1.377378E-05	-6.830758E-06	2.483454E-07	-1.625699E-05	-2.485101E-06	2.306371E-06	-3.146618E-05	-1.512626E-05	7.389611E-06	6.979327E-06	1.426739E-05	1.737838E-05
-1.065819E-05	-5.940034E-06	-4.904161E-06	-7.603001E-06	-1.377378E-05	-6.830758E-06	2.483454E-07	-1.625699E-05	-2.485101E-06	2.306371E-06	-3.146618E-05	-1.512626E-05	7.389611E-06	6.979327E-06	1.426739E-05	1.737838E-05
-1.094225E-05	-4.843412E-06	-2.941601E-06	-7.395534E-06	-1.23803E-05	-6.595476E-06	-8.262635E-07	-1.356956E-05	1.052911E-06	3.245807E-06	-3.021488E-05	-1.547067E-05	5.414437E-06	7.51542E-06	1.709906E-05	1.837606E-05
-1.094225E-05	-4.843412E-06	-2.941601E-06	-7.395534E-06	-1.23803E-05	-6.595476E-06	-8.262635E-07	-1.356956E-05	1.052911E-06	3.245807E-06	-3.021488E-05	-1.547067E-05	5.414437E-06	7.51542E-06	1.709906E-05	1.837606E-05
-1.137528E-05	-3.723716E-06	-1.531295E-06	-7.217875E-06	-1.156177E-05	-6.473143E-06	-2.408502E-06	-1.205631E-05	4.480766E-06	2.856687E-06	-2.915289E-05	-1.79992E-05	4.829338E-06	8.373464E-06	1.682104E-05	1.848043E-05
-1.137528E-05	-3.723716E-06	-1.531295E-06	-7.217875E-06	-1.156177E-05	-6.473143E-06	-2.408502E-06	-1.205631E-05	4.480766E-06	2.856687E-06	-2.915289E-05	-1.79992E-05	4.829338E-06	8.373464E-06	1.682104E-05	1.848043E-05
-1.194887E-05	-3.770697E-06	-2.189734E-06	-7.534564E-06	-1.241631E-05	-6.561864E-06	-3.272241E-06	-1.34452E-05	2.855971E-06	3.378819E-06	-2.952392E-05	-1.887664E-05	5.182264E-06	8.125146E-06	1.496082E-05	1.846603E-05
-1.194887E-05	-3.770697E-06	-2.189734E-06	-7.534564E-06	-1.241631E-05	-6.561864E-06	-3.272241E-06	-1.34452E-05	2.855971E-06	3.378819E-06	-2.952392E-05	-1.887664E-05	5.182264E-06	8.125146E-06	1.496082E-05	1.846603E-05
-1.227738E-05	-4.027902E-06	-3.037816E-06	-7.977201E-06	-1.312655E-05	-6.137421E-06	-3.285266E-06	-1.50367E-05	4.862061E-07	3.337198E-06	-3.077145E-05	-1.798719E-05	6.894425E-06	7.528135E-06	1.305404E-05	1.673501E-05
-1.227738E-05	-4.027902E-06	-3.037816E-06	-7.977201E-06	-1.312655E-05	-6.137421E-06	-3.285266E-06	-1.50367E-05	4.862061E-07	3.337198E-06	-3.077145E-05	-1.798719E-05	6.894425E-06	7.528135E-06	1.305404E-05	1.673501E-05
-1.187233E-05	-3.299728E-06	-3.561818E-06	-8.338163E-06	-1.29798E-05	-5.62207E-06	-3.617531E-06	-1.495645E-05	-3.182022E-07	2.404461E-06	-3.109269E-05	-1.634855E-05	8.469583E-06	7.378645E-06	1.237269E-05	1.52417E-05
-1.187233E-05	-3.299728E-06	-3.561818E-06	-8.338163E-06	-1.29798E-05	-5.62207E-06	-3.617531E-06	-1.495645E-05	-3.182022E-07	2.404461E-06	-3.109269E-05	-1.634855E-05	8.469583E-06	7.378645E-06	1.237269E-05	1.52417E-05
-1.125284E-05	-2.248643E-06	-4.521196E-06	-8.280346E-06	-1.321904E-05	-6.138312E-06	-4.049445E-06	-1.455311E-05	1.623507E-06	2.631219E-06	-3.146504E-05	-1.590679E-05	8.006391E-06	6.707667E-06	1.249156E-05	1.471932E-05
-1.125284E-05	-2.248643E-06	-4.521196E-06	-8.280346E-06	-1.321904E-05	-6.138312E-06	-4.049445E-06	-1.455311E-05	1.623507E-06	2.631219E-06	-3.146504E-05	-1.590679E-05	8.006391E-06	6.707667E-06	1.249156E-05	1.471932E-05
-1.171779E-05	-1.958902E-06	-4.357707E-06	-7.184892E-06	-1.375128E-05	-7.549806E-06	-3.310249E-06	-1.433483E-05	3.80449E-06	4.269874E-06	-3.221875E-05	-1.577113E-05	7.829492E-06	6.119692E-06	1.246909E-05	1.52018E-05
-1.171779E-05	-1.958902E-06	-4.357707E-06	-7.184892E-06	-1.375128E-05	-7.549806E-06	-3.310249E-06	-1.433483E-05	3.80449E-06	4.269874E-06	-3.221875E-05	-1.577113E-05	7.829492E-06	6.119692E-06	1.246909E-05	1.52018E-05
-1.287925E-05	-2.290868E-06	-2.820929E-06	-5.974085E-06	-1.383713E-05	-8.697559E-06	-2.268985E-06	-1.463836E-05	4.375055E-06	5.634864E-06	-3.176735E-05	-1.595901E-05	7.775126E-06	5.750591E-06	1.183599E-05	1.470033E-05
-1.287925E-05	-2.290868E-06	-2.820929E-06	-5.974085E-06	-1.383713E-05	-8.697559E-06	-2.268985E-06	-1.463836E-05	4.375055E-06	5.634864E-06	-3.176735E-05	-1.595901E-05	7.775126E-06	5.750591E-06	1.183599E-05	1.470033E-05
-1.353483E-05	-2.697988E-06	-2.073265E-06	-6.710796E-06	-1.361968E-05	-8.7698E-06	-2.168169E-06	-1.604455E-05	3.484331E-06	5.44342E-06	-3.059457E-05	-1.636137E-05	8.125216E-06	5.228614E-06	9.80419E-06	1.175136E-05
-1.353483E-05	-2.697988E-06	-2.073265E-06	-6.710796E-06	-1.361968E-05	-8.7698E-06	-2.168169E-06	-1.604455E-05	3.484331E-06	5.44342E-06	-3.059457E-05	-1.636137E-05	8.125216E-06	5.228614E-06	9.80419E-06	1.175136E-05
-1.407311E-05	-3.194116E-06	-2.936358E-06	-1.003259E-05	-1.362259E-05	-8.051112E-06	-1.827371E-06	-1.744733E-05	2.012084E-06	5.407569E-06	-3.092874E-05	-1.738564E-05	7.838858E-06	4.308581E-06	8.536831E-06	8.996179E-06
-1.407311E-05	-3.194116E-06	-2.936358E-06	-1.003259E-05	-1.362259E-05	-8.051112E-06	-1.827371E-06	-1.744733E-05	2.012084E-06	5.407569E-06	-3.092874E-05	-1.738564E-05	7.838858E-06	4.308581E-06	8.536831E-06	8.996179E-06
-1.47811E-05	-3.454141E-06	-4.351348E-06	-1.410691E-05	-1.414036E-05	-7.421021E-06	-7.301986E-07	-1.76576E-05	-8.878247E-07	5.692322E-06	-3.228828E-05	-1.8492E-05	7.300081E-06	3.668958E-06	8.296024E-06	8.297542E-06
-1.47811E-05	-3.454141E-06	-4.351348E-06	-1.410691E-05	-1.414036E-05	-7.421021E-06	-7.301986E-07	-1.76576E-05	-8.878247E-07	5.692322E-06	-3.228828E-05	-1.8492E-05	7.300081E-06	3.668958E-06	8.296024E-06	8.297542E-06
-1.49024E-05	-3.024827E-06	-5.050386E-06	-1.695379E-05	-1.510975E-05	-7.411458E-06	-2.796552E-07	-1.69075E-05	-3.938217E-06	6.217424E-06	-3.222359E-05	-1.75591E-05	6.803878E-06	3.23001E-06	9.757498E-06	1.069343E-05
-1.49024E-05	-3.024827E-06	-5.050386E-06	-1.695379E-05	-1.510975E-05	-7.411458E-06	-2.796552E-07	-1.69075E-05	-3.938217E-06	6.217424E-06	-3.222359E-05	-1.75591E-05	6.803878E-06	3.23001E-06	9.757498E-06	1.069343E-05
-1.433806E-05	-2.596078E-06	-4.787727E-06	-1.931211E-05	-1.616017E-05	-7.895678E-06	-9.132469E-07	-1.580666E-05	-4.474689E-06	6.822124E-06	-3.121927E-05	-1.747642E-05	6.249571E-06	2.969156E-06	1.229599E-05	1.223741E-05
-1.433806E-05	-2.596078E-06	-4.787727E-06	-1.931211E-05	-1.616017E-05	-7.895678E-06	-9.132469E-07	-1.580666E-05	-4.474689E-06	6.822124E-06	-3.121927E-05	-1.747642E-05	6.249571E-06	2.969156E-06	1.229599E-05	1.223741E-05
-1.359713E-05	-3.037902E-06	-4.531269E-06	-2.22684E-05	-1.652956E-05	-8.509484E-06	-1.893541E-06	-1.508755E-05	-2.94149E-06	7.374377E-06	-3.116662E-05	-1.885749E-05	6.0872E-06	3.431403E-06	1.288038E-05	1.201826E-05
-1.359713E-05	-3.037902E-06	-4.531269E-06	-2.22684E-05	-1.652956E-05	-8.509484E-06	-1.893541E-06	-1.508755E-05	-2.94149E-06	7.374377E-06	-3.116662E-05	-1.885749E-05	6.0872E-06	3.431403E-06	1.288038E-05	1.201826E-05
-1.278778E-05	-4.29082E-06	-5.10999E-06	-2.450009E-05	-1.581113E-05	-9.038885E-06	-2.681161E-06	-1.551813E-05	-2.073702E-06	7.400984E-06	-3.267263E-05	-2.135101E-05	6.937803E-06	4.349183E-06	1.133108E-05	1.119125E-05
-1.278778E-05	-4.29082E-06	-5.10999E-06	-2.450009E-05	-1.581113E-05	-9.038885E-06	-2.681161E-06	-1.551813E-05	-2.073702E-06	7.400984E-06	-3.267263E-05	-2.135101E-05	6.937803E-06	4.349183E-06	1.133108E-05	1.119125E-05
-1.166607E-05	-5.880542E-06	-5.808446E-06	-2.444128E-05	-1.50318E-05	-9.269986E-06	-3.139311E-06	-1.693195E-05	-3.406248E-06	6.548467E-06	-3.313481E-05	-2.34383E-05	8.332595E-06	5.887642E-06	1.011627E-05	1.129492E-05
-1.166607E-05	-5.880542E-06	-5.808446E-06	-2.444128E-05	-1.50318E-05	-9.269986E-06	-3.139311E-06	-1.693195E-05	-3.406248E-06	6.548467E-06	-3.313481E-05	-2.34383E-05	8.332595E-06	5.887642E-06	1.011627E-05	1.129492E-05
-1.020828E-05	-6.881901E-06	-5.274379E-06	-2.246671E-05	-1.538257E-05	-8.952753E-06	-3.267795E-06	-1.807456E-05	-3.533E-06	5.244704E-06	-3.159945E-05	-2.425451E-05	9.840825E-06	6.400535E-06	1.050842E-05	1.14153E-05
-1.020828E-05	-6.881901E-06	-5.274379E-06	-2.246671E-05	-1.538257E-05	-8.952753E-06	-3.267795E-06	-1.807456E-05	-3.533E-06	5.244704E-06	-3.159945E-05	-2.425451E-05	9.840825E-06	6.400535E-06	1.050842E-05	1.14153E-05
-9.014312E-06	-6.231975E-06	-3.510009E-06	-2.025392E-05	-1.641044E-05	-8.069413E-06	-3.02673E-06	-1.784174E-05	-1.916676E-06	5.169745E-06	-3.030342E-05	-2.31702E-05	1.132402E-05	6.311929E-06	1.202689E-05	1.230699E-05
-9.014312E-06	-6.231975E-06	-3.510009E-06	-2.025392E-05	-1.641044E-05	-8.069413E-06	-3.02673E-06	-1.784174E-05	-1.916676E-06	5.169745E-06	-3.030342E-05	-2.31702E-05	1.132402E-05	6.311929E-06	1.202689E-05	1.230699E-05
-9.097093E-06	-4.418722E-06	-2.228712E-06	-1.904299E-05	-1.677691E-05	-7.075756E-06	-2.5589E-06	-1.678319E-05	-9.803794E-07	4.889832E-06	-3.000165E-05	-2.168095E-05	1.160584E-05	6.191593E-06	1.315354E-05	1.28395E-05
-9.097093E-06	-4.418722E-06	-2.228712E-06	-1.904299E-05	-1.677691E-05	-7.075756E-06	-2.5589E-06	-1.678319E-05	-9.803794E-07	4.889832E-06	-3.000165E-05	-2.168095E-05	1.160584E-05	6.191593E-06	1.315354E-05	1.28395E-05
-1.057929E-05	-2.960832E-06	-2.684455E-06	-1.882796E-05	-1.605521E-05	-6.546702E-06	-2.285411E-06	-1.604688E-05	-1.344465E-06	4.225292E-06	-2.985509E-05	-2.116337E-05	1.069168E-05	5.961039E-06	1.352844E-05	1.192422E-05
-1.057929E-05	-2.960832E-06	-2.684455E-06	-1.882796E-05	-1.605521E-05	-6.546702E-06	-2.285411E-06	-1.604688E-05	-1.344465E-06	4.225292E-06	-2.985509E-05	-2.116337E-05	1.069168E-05	5.961039E-06	1.352844E-05	1.192422E-05
-1.208907E-05	-2.223846E-06	-3.670842E-06	-1.878832E-05	-1.513036E-05	-6.454129E-06	-2.522664E-06	-1.531216E-05	-5.5241E-07	4.979331E-06	-2.989723E-05	-2.185205E-05	9.030456E-06	5.92685E-06	1.484786E-05	1.11335E-05
-1.208907E-05	-2.223846E-06	-3.670842E-06	-1.878832E-05	-1.513036E-05	-6.454129E-06	-2.522664E-06	-1.531216E-05	-5.5241E-07	4.979331E-06	-2.989723E-05	-2.185205E-05	9.030456E-06	5.92685E-06	1.484786E-05	1.11335E-05
-1.289816E-05	-1.843945E-06	-3.575989E-06	-1.834529E-05	-1.456775E-05	-6.264806E-06	-3.075733E-06	-1.417836E-05	7.968371E-07	5.086828E-06	-3.068965E-05	-2.233953E-05	7.6509E-06	6.553862E-06	1.625263E-05	1.129067E-05
-1.289816E-05	-1.843945E-06	-3.575989E-06	-1.834529E-05	-1.456775E-05	-6.264806E-06	-3.075733E-06	-1.417836E-05	7.968371E-07	5.086828E-06	-3.068965E-05	-2.233953E-05	7.6509E-06	6.553862E-06	1.625263E-05	1.129067E-05
-1.338947E-05	-2.063393E-06	-2.909982E-06	-1.746478E-05	-1.403377E-05	-5.909234E-06	-3.461335E-06	-1.331434E-05	2.974816E-07	5.030653E-06	-3.125544E-05	-2.209454E-05	7.901906E-06	6.284571E-06	1.644417E-05	1.19439E-05
-1.338947E-05	-2.063393E-06	-2.909982E-06	-1.746478E-05	-1.403377E-05	-5.909234E-06	-3.461335E-06	-1.331434E-05	2.974816E-07	5.030653E-06	-3.125544E-05	-2.209454E-05	7.901906E-06	6.284571E-06	1.644417E-05	1.19439E-05
-1.292947E-05	-3.271046E-06	-3.275848E-06	-1.591654E-05	-1.373139E-05	-6.142022E-06	-3.511027E-06	-1.288638E-05	-1.193871E-06	5.348001E-06	-3.22927E-05	-2.082334E-05	8.552777E-06	4.652466E-06	1.490441E-05	1.323587E-05
-1.292947E-05	-3.271046E-06	-3.275848E-06	-1.591654E-05	-1.373139E-05	-6.142022E-06	-3.511027E-06	-1.288638E-05	-1.193871E-06	5.348001E-06	-3.22927E-05	-2.082334E-05	8.552777E-06	4.652466E-06	1.490441E-05	1.323587E-05
-1.124696E-05	-4.53924E-06	-4.933178E-06	-1.391053E-05	-1.396917E-05	-6.956812E-06	-3.177321E-06	-1.253373E-05	-1.678855E-06	5.084129E-06	-3.302018E-05	-2.031888E-05	8.629373E-06	3.352154E-06	1.323872E-05	1.328698E-05
-1.124696E-05	-4.53924E-06	-4.933178E-06	-1.391053E-05	-1.396917E-05	-6.956812E-06	-3.177321E-06	-1.253373E-05	-1.678855E-06	5.084129E-06	-3.302018E-05	-2.031888E-05	8.629373E-06	3.352154E-06	1.323872E-05	1.328698E-05
-9.872457E-06	-4.301931E-06	-6.445635E-06	-1.255295E-05	-1.424001E-05	-7.17067E-06	-2.391908E-06	-1.229667E-05	-2.144005E-06	5.299473E-06	-3.155092E-05	-2.045749E-05	9.4383E-06	2.108676E-06	1.374576E-05	1.323098E-05
-9.872457E-06	-4.301931E-06	-6.445635E-06	-1.255295E-05	-1.424001E-05	-7.17067E-06	-2.391908E-06	-1.229667E-05	-2.144005E-06	5.299473E-06	-3.155092E-05	-2.045749E-05	9.4383E-06	2.108676E-06	1.374576E-05	1.323098E-05
-9.990652E-06	-3.266764E-06	-6.168165E-06	-1.26054E-05	-1.465497E-05	-6.540603E-06	-1.991541E-06	-1.224732E-05	-2.073111E-06	5.127906E-06	-3.038337E-05	-1.98976E-05	1.053712E-05	4.799867E-07	1.609965E-05	1.443953E-05
-9.990652E-06	-3.266764E-06	-6.168165E-06	-1.26054E-05	-1.465497E-05	-6.540603E-06	-1.991541E-06	-1.224732E-05	-2.073111E-06	5.127906E-06	-3.038337E-05	-1.98976E-05	1.053712E-05	4.799867E-07	1.609965E-05	1.443953E-05
-1.157994E-05	-3.210956E-06	-3.71356E-06	-1.374233E-05	-1.633634E-05	-6.089838E-06	-2.626285E-06	-1.262284E-05	-1.547236E-06	4.983737E-06	-3.065825E-05	-2.141985E-05	1.088468E-05	2.401049E-07	1.615945E-05	1.528802E-05
-1.157994E-05	-3.210956E-06	-3.71356E-06	-1.374233E-05	-1.633634E-05	-6.089838E-06	-2.626285E-06	-1.262284E-05	-1.547236E-06	4.983737E-06	-3.065825E-05	-2.141985E-05	1.088468E-05	2.401049E-07	1.615945E-05	1.528802E-05
-1.327041E-05	-3.920824E-06	-1.716534E-06	-1.441146E-05	-1.89784E-05	-6.846748E-06	-2.788898E-06	-1.408689E-05	-4.366804E-07	3.725855E-06	-3.154782E-05	-2.072654E-05	9.588517E-06	-6.712738E-07	1.418263E-05	1.577742E-05
-1.327041E-05	-3.920824E-06	-1.716534E-06	-1.441146E-05	-1.89784E-05	-6.846748E-06	-2.788898E-06	-1.408689E-05	-4.366804E-07	3.725855E-06	-3.154782E-05	-2.072654E-05	9.588517E-06	-6.712738E-07	1.418263E-05	1.577742E-05
-1.341824E-05	-4.654601E-06	-2.407425E-06	-1.396989E-05	-2.032815E-05	-8.234902E-06	-1.830767E-06	-1.632091E-05	7.291065E-07	3.572343E-06	-3.256725E-05	-1.77579E-05	7.778452E-06	1.381662E-06	1.25882E-05	1.654122E-05
-1.341824E-05	-4.654601E-06	-2.407425E-06	-1.396989E-05	-2.032815E-05	-8.234902E-06	-1.830767E-06	-1.632091E-05	7.291065E-07	3.572343E-06	-3.256725E-05	-1.77579E-05	7.778452E-06	1.381662E-06	1.25882E-05	1.654122E-05
-1.281688E-05	-5.382433E-06	-3.592392E-06	-1.341596E-05	-1.952382E-05	-8.352848E-06	-1.612951E-06	-1.818062E-05	-1.577533E-07	3.783595E-06	-3.153279E-05	-1.697704E-05	7.78834E-06	5.713679E-06	1.191091E-05	1.637182E-05
-1.281688E-05	-5.382433E-06	-3.592392E-06	-1.341596E-05	-1.952382E-05	-8.352848E-06	-1.612951E-06	-1.818062E-05	-1.577533E-07	3.783595E-06	-3.153279E-05	-1.697704E-05	7.78834E-06	5.713679E-06	1.191091E-05	1.637182E-05
-1.313236E-05	-5.801216E-06	-3.802923E-06	-1.158561E-05	-1.814798E-05	-7.481402E-06	-2.338292E-06	-1.972452E-05	-1.307274E-08	2.790345E-06	-2.94904E-05	-1.791831E-05	9.799674E-06	7.542776E-06	1.196938E-05	1.554325E-05
-1.313236E-05	-5.801216E-06	-3.802923E-06	-1.158561E-05	-1.814798E-05	-7.481402E-06	-2.338292E-06	-1.972452E-05	-1.307274E-08	2.790345E-06	-2.94904E-05	-1.791831E-05	9.799674E-06	7.542776E-06	1.196938E-05	1.554325E-05
-1.387809E-05	-5.638635E-06	-4.294369E-06	-6.511934E-06	-1.717852E-05	-7.384583E-06	-2.697597E-06	-2.128141E-05	8.092942E-07	3.178234E-06	-3.036026E-05	-1.903774E-05	1.229805E-05	7.27016E-06	1.232286E-05	1.389995E-05
-1.387809E-05	-5.638635E-06	-4.294369E-06	-6.511934E-06	-1.717852E-05	-7.384583E-06	-2.697597E-06	-2.128141E-05	8.092942E-07	3.178234E-06	-3.036026E-05	-1.903774E-05	1.229805E-05	7.27016E-06	1.232286E-05	1.389995E-05
-1.3692E-05	-4.986981E-06	-5.121797E-06	7.202423E-07	-1.639964E-05	-7.888995E-06	-2.657333E-06	-2.196203E-05	1.20016E-07	3.271356E-06	-3.311167E-05	-2.015765E-05	1.304839E-05	6.026708E-06	1.372598E-05	1.123886E-05
-1.3692E-05	-4.986981E-06	-5.121797E-06	7.202423E-07	-1.639964E-05	-7.888995E-06	-2.657333E-06	-2.196203E-05	1.20016E-07	3.271356E-06	-3.311167E-05	-2.015765E-05	1.304839E-05	6.026708E-06	1.372598E-05	1.123886E-05
-1.255611E-05	-3.9192E-06	-6.018412E-06	7.93043E-06	-1.643083E-05	-7.858255E-06	-2.078142E-06	-2.100953E-05	-5.620232E-07	2.238763E-06	-3.451429E-05	-2.131812E-05	1.2173E-05	5.841369E-06	1.470228E-05	9.97369E-06
-1.255611E-05	-3.9192E-06	-6.018412E-06	7.93043E-06	-1.643083E-05	-7.858255E-06	-2.078142E-06	-2.100953E-05	-5.620232E-07	2.238763E-06	-3.451429E-05	-2.131812E-05	1.2173E-05	5.841369E-06	1.470228E-05	9.97369E-06
-1.155243E-05	-2.634132E-06	-7.185579E-06	1.247534E-05	-1.738523E-05	-7.150171E-06	-1.365153E-06	-1.879423E-05	-6.803605E-07	1.468533E-06	-3.340507E-05	-2.164243E-05	9.614207E-06	6.617006E-06	1.493838E-05	9.93312E-06
-1.155243E-05	-2.634132E-06	-7.185579E-06	1.247534E-05	-1.738523E-05	-7.150171E-06	-1.365153E-06	-1.879423E-05	-6.803605E-07	1.468533E-06	-3.340507E-05	-2.164243E-05	9.614207E-06	6.617006E-06	1.493838E-05	9.93312E-06
-1.146567E-05	-1.487453E-06	-7.844592E-06	1.135401E-05	-1.768462E-05	-6.447518E-06	-2.511048E-06	-1.629515E-05	-1.374392E-06	9.746745E-07	-3.195284E-05	-2.129738E-05	7.971769E-06	6.741923E-06	1.512276E-05	9.344121E-06
-1.146567E-05	-1.487453E-06	-7.844592E-06	1.135401E-05	-1.768462E-05	-6.447518E-06	-2.511048E-06	-1.629515E-05	-1.374392E-06	9.746745E-07	-3.195284E-05	-2.129738E-05	7.971769E-06	6.741923E-06	1.512276E-05	9.344121E-06
-1.174343E-05	-6.647422E-07	-7.523391E-06	6.040888E-06	-1.727266E-05	-6.187842E-06	-4.906234E-06	-1.467087E-05	-2.243318E-06	1.265653E-06	-3.262613E-05	-2.079198E-05	8.965217E-06	4.768358E-06	1.510611E-05	9.047826E-06
-1.174343E-05	-6.647422E-07	-7.523391E-06	6.040888E-06	-1.727266E-05	-6.187842E-06	-4.906234E-06	-1.467087E-05	-2.243318E-06	1.265653E-06	-3.262613E-05	-2.079198E-05	8.965217E-06	4.768358E-06	1.510611E-05	9.047826E-06
-1.145509E-05	8.796579E-09	-7.012569E-06	1.438749E-06	-1.737828E-05	-6.117608E-06	-5.320971E-06	-1.43566E-05	-1.021311E-06	2.414087E-06	-3.370084E-05	-2.14519E-05	9.483106E-06	3.71533E-06	1.413783E-05	9.897574E-06
-1.145509E-05	8.796579E-09	-7.012569E-06	1.438749E-06	-1.737828E-05	-6.117608E-06	-5.320971E-06	-1.43566E-05	-1.021311E-06	2.414087E-06	-3.370084E-05	-2.14519E-05	9.483106E-06	3.71533E-06	1.413783E-05	9.897574E-06
-1.10643E-05	9.058814E-07	-6.916642E-06	-1.069594E-06	-1.717992E-05	-5.834976E-06	-3.420674E-06	-1.438342E-05	1.338552E-06	2.875708E-06	-3.394393E-05	-2.306965E-05	8.188009E-06	4.728482E-06	1.265779E-05	1.069797E-05
-1.10643E-05	9.058814E-07	-6.916642E-06	-1.069594E-06	-1.717992E-05	-5.834976E-06	-3.420674E-06	-1.438342E-05	1.338552E-06	2.875708E-06	-3.394393E-05	-2.306965E-05	8.188009E-06	4.728482E-06	1.265779E-05	1.069797E-05
-1.105374E-05	1.676629E-06	-6.774005E-06	-2.672541E-06	-1.610113E-05	-5.269961E-06	-2.058889E-06	-1.422311E-05	2.709158E-06	2.542008E-06	-3.344784E-05	-2.4681E-05	6.422303E-06	6.437028E-06	1.16566E-05	1.1006E-05
-1.105374E-05	1.676629E-06	-6.774005E-06	-2.672541E-06	-1.610113E-05	-5.269961E-06	-2.058889E-06	-1.422311E-05	2.709158E-06	2.542008E-06	-3.344784E-05	-2.4681E-05	6.422303E-06	6.437028E-06	1.16566E-05	1.1006E-05
-1.0853E-05	1.539135E-06	-5.914994E-06	-3.256608E-06	-1.561429E-05	-4.71238E-06	-2.970458E-06	-1.461136E-05	1.515798E-06	2.235118E-06	-3.28316E-05	-2.624128E-05	5.441288E-06	6.934262E-06	1.111323E-05	1.111023E-05
-1.0853E-05	1.539135E-06	-5.914994E-06	-3.256608E-06	-1.561429E-05	-4.71238E-06	-2.970458E-06	-1.461136E-05	1.515798E-06	2.235118E-06	-3.28316E-05	-2.624128E-05	5.441288E-06	6.934262E-06	1.111323E-05	1.111023E-05
-1.060118E-05	1.049177E-06	-4.714391E-06	-2.517938E-06	-1.61256E-05	-4.496296E-06	-4.409441E-06	-1.535211E-05	-8.24497E-07	1.893211E-06	-3.216236E-05	-2.722163E-05	5.652768E-06	6.586532E-06	1.104189E-05	1.127411E-05
-1.060118E-05	1.049177E-06	-4.714391E-06	-2.517938E-06	-1.61256E-05	-4.496296E-06	-4.409441E-06	-1.535211E-05	-8.24497E-07	1.893211E-06	-3.216236E-05	-2.722163E-05	5.652768E-06	6.586532E-06	1.104189E-05	1.127411E-05
-1.049435E-05	1.192153E-06	-3.656435E-06	-1.670176E-06	-1.670162E-05	-4.815539E-06	-4.178391E-06	-1.532467E-05	-2.194923E-06	1.481601E-06	-3.174433E-05	-2.71667E-05	6.940292E-06	6.937992E-06	1.164513E-05	1.132339E-05
-1.049435E-05	1.192153E-06	-3.656435E-06	-1.670176E-06	-1.670162E-05	-4.815539E-06	-4.178391E-06	-1.532467E-05	-2.194923E-06	1.481601E-06	-3.174433E-05	-2.71667E-05	6.940292E-06	6.937992E-06	1.164513E-05	1.132339E-05
-9.649738E-06	1.447417E-06	-2.362512E-06	-3.11781E-06	-1.708777E-05	-5.624741E-06	-3.017943E-06	-1.450431E-05	-2.718867E-06	4.506362E-07	-3.228192E-05	-2.641324E-05	7.853679E-06	8.046154E-06	1.269451E-05	1.140353E-05
-9.649738E-06	1.447417E-06	-2.362512E-06	-3.11781E-06	-1.708777E-05	-5.624741E-06	-3.017943E-06	-1.450431E-05	-2.718867E-06	4.506362E-07	-3.228192E-05	-2.641324E-05	7.853679E-06	8.046154E-06	1.269451E-05	1.140353E-05
-8.239715E-06	8.618368E-07	-1.379471E-06	-8.081073E-06	-1.758268E-05	-6.305072E-06	-2.372595E-06	-1.409797E-05	-3.636628E-06	-1.082117E-06	-3.38072E-05	-2.559974E-05	7.919754E-06	8.256265E-06	1.258522E-05	1.09328E-05
-8.239715E-06	8.618368E-07	-1.379471E-06	-8.081073E-06	-1.758268E-05	-6.305072E-06	-2.372595E-06	-1.409797E-05	-3.636628E-06	-1.082117E-06	-3.38072E-05	-2.559974E-05	7.919754E-06	8.256265E-06	1.258522E-05	1.09328E-05
-7.673675E-06	-1.084563E-06	-1.800792E-06	-1.510634E-05	-1.793119E-05	-6.086362E-06	-2.61081E-06	-1.477045E-05	-4.363874E-06	-1.787867E-06	-3.445336E-05	-2.528146E-05	7.862267E-06	7.503294E-06	1.094745E-05	1.111702E-05
-7.673675E-06	-1.084563E-06	-1.800792E-06	-1.510634E-05	-1.793119E-05	-6.086362E-06	-2.61081E-06	-1.477045E-05	-4.363874E-06	-1.787867E-06	-3.445336E-05	-2.528146E-05	7.862267E-06	7.503294E-06	1.094745E-05	1.111702E-05
-8.315752E-06	-4.904671E-06	-2.915001E-06	-2.152582E-05	-1.725387E-05	-5.08254E-06	-3.819222E-06	-1.548913E-05	-4.172566E-06	-1.962708E-06	-3.456115E-05	-2.577757E-05	7.911591E-06	7.154461E-06	1.010353E-05	1.18529E-05
-8.315752E-06	-4.904671E-06	-2.915001E-06	-2.152582E-05	-1.725387E-05	-5.08254E-06	-3.819222E-06	-1.548913E-05	-4.172566E-06	-1.962708E-06	-3.456115E-05	-2.577757E-05	7.911591E-06	7.154461E-06	1.010353E-05	1.18529E-05
-9.442897E-06	-9.990868E-06	-3.328184E-06	-2.5565E-05	-1.599941E-05	-4.384452E-06	-5.113669E-06	-1.52803E-05	-4.32684E-06	-2.106764E-06	-3.525876E-05	-2.642738E-05	8.029494E-06	5.87069E-06	1.112993E-05	1.162868E-05
-9.442897E-06	-9.990868E-06	-3.328184E-06	-2.5565E-05	-1.599941E-05	-4.384452E-06	-5.113669E-06	-1.52803E-05	-4.32684E-06	-2.106764E-06	-3.525876E-05	-2.642738E-05	8.029494E-06	5.87069E-06	1.112993E-05	1.162868E-05
-1.054534E-05	-1.421295E-05	-2.7019E-06	-2.711053E-05	-1.582087E-05	-4.868884E-06	-5.204852E-06	-1.436697E-05	-4.694458E-06	-2.119537E-06	-3.451075E-05	-2.668914E-05	8.751786E-06	4.698151E-06	1.199196E-05	9.744307E-06
-1.054534E-05	-1.421295E-05	-2.7019E-06	-2.711053E-05	-1.582087E-05	-4.868884E-06	-5.204852E-06	-1.436697E-05	-4.694458E-06	-2.119537E-06	-3.451075E-05	-2.668914E-05	8.751786E-06	4.698151E-06	1.199196E-05	9.744307E-06
-1.167055E-05	-1.581438E-05	-1.418494E-06	-2.709104E-05	-1.664255E-05	-6.080722E-06	-4.556392E-06	-1.28307E-05	-4.105254E-06	-9.700605E-07	-3.202934E-05	-2.46966E-05	8.498554E-06	6.164551E-06	1.246309E-05	8.582186E-06
-1.167055E-05	-1.581438E-05	-1.418494E-06	-2.709104E-05	-1.664255E-05	-6.080722E-06	-4.556392E-06	-1.28307E-05	-4.105254E-06	-9.700605E-07	-3.202934E-05	-2.46966E-05	8.498554E-06	6.164551E-06	1.246309E-05	8.582186E-06
-1.241386E-05	-1.473808E-05	-5.708991E-07	-2.617338E-05	-1.731695E-05	-6.998888E-06	-4.587156E-06	-1.06506E-05	-1.787153E-06	1.287731E-06	-2.981316E-05	-2.205108E-05	8.267743E-06	7.184233E-06	1.200463E-05	8.92822E-06
-1.241386E-05	-1.473808E-05	-5.708991E-07	-2.617338E-05	-1.731695E-05	-6.998888E-06	-4.587156E-06	-1.06506E-05	-1.787153E-06	1.287731E-06	-2.981316E-05	-2.205108E-05	8.267743E-06	7.184233E-06	1.200463E-05	8.92822E-06
-1.195657E-05	-1.239858E-05	-1.176639E-06	-2.441963E-05	-1.773748E-05	-7.341235E-06	-5.532879E-06	-8.511822E-06	-8.071965E-07	2.322631E-06	-2.962194E-05	-2.177641E-05	1.005823E-05	6.618372E-06	1.121984E-05	9.80539E-06
-1.195657E-05	-1.239858E-05	-1.176639E-06	-2.441963E-05	-1.773748E-05	-7.341235E-06	-5.532879E-06	-8.511822E-06	-8.071965E-07	2.322631E-06	-2.962194E-05	-2.177641E-05	1.005823E-05	6.618372E-06	1.121984E-05	9.80539E-06
-1.065569E-05	-1.010299E-05	-2.568614E-06	-2.226877E-05	-1.787383E-05	-7.482767E-06	-6.126748E-06	-7.766903E-06	-2.587873E-06	5.606836E-08	-3.093039E-05	-2.114176E-05	1.269016E-05	5.339977E-06	9.543935E-06	1.113374E-05
-1.065569E-05	-1.010299E-05	-2.568614E-06	-2.226877E-05	-1.787383E-05	-7.482767E-06	-6.126748E-06	-7.766903E-06	-2.587873E-06	5.606836E-08	-3.093039E-05	-2.114176E-05	1.269016E-05	5.339977E-06	9.543935E-06	1.113374E-05
-9.464591E-06	-7.773326E-06	-3.55867E-06	-2.001664E-05	-1.759697E-05	-7.976495E-06	-4.826688E-06	-9.30509E-06	-2.802916E-06	-6.382865E-07	-3.226329E-05	-1.918475E-05	1.395238E-05	5.63658E-06	8.968874E-06	1.106551E-05
-9.464591E-06	-7.773326E-06	-3.55867E-06	-2.001664E-05	-1.759697E-05	-7.976495E-06	-4.826688E-06	-9.30509E-06	-2.802916E-06	-6.382865E-07	-3.226329E-05	-1.918475E-05	1.395238E-05	5.63658E-06	8.968874E-06	1.106551E-05
-9.020054E-06	-5.768981E-06	-3.732008E-06	-1.7752E-05	-1.772167E-05	-8.882828E-06	-1.836006E-06	-1.165916E-05	-9.608975E-07	9.54713E-07	-3.405123E-05	-1.672956E-05	1.121995E-05	4.724994E-06	1.091224E-05	1.025948E-05
-9.020054E-06	-5.768981E-06	-3.732008E-06	-1.7752E-05	-1.772167E-05	-8.882828E-06	-1.836006E-06	-1.165916E-05	-9.608975E-07	9.54713E-07	-3.405123E-05	-1.672956E-05	1.121995E-05	4.724994E-06	1.091224E-05	1.025948E-05
-9.301728E-06	-5.141348E-06	-3.070545E-06	-1.595067E-05	-1.853535E-05	-9.326077E-06	9.360868E-07	-1.291562E-05	3.80999E-08	2.257648E-06	-3.456574E-05	-1.405622E-05	7.464912E-06	3.616114E-06	1.223787E-05	9.758437E-06
-9.301728E-06	-5.141348E-06	-3.070545E-06	-1.595067E-05	-1.853535E-05	-9.326077E-06	9.360868E-07	-1.291562E-05	3.80999E-08	2.257648E-06	-3.456574E-05	-1.405622E-05	7.464912E-06	3.616114E-06	1.223787E-05	9.758437E-06
-9.356941E-06	-4.701744E-06	-2.556268E-06	-1.385573E-05	-1.871712E-05	-8.774241E-06	2.109869E-06	-1.356406E-05	8.671915E-08	3.44851E-06	-3.354309E-05	-1.423444E-05	5.570473E-06	5.079535E-06	1.124556E-05	9.726456E-06
-9.356941E-06	-4.701744E-06	-2.556268E-06	-1.385573E-05	-1.871712E-05	-8.774241E-06	2.109869E-06	-1.356406E-05	8.671915E-08	3.44851E-06	-3.354309E-05	-1.423444E-05	5.570473E-06	5.079535E-06	1.124556E-05	9.726456E-06
-9.409216E-06	-2.825503E-06	-3.207969E-06	-1.061407E-05	-1.745058E-05	-8.051476E-06	1.641588E-06	-1.435116E-05	-3.030551E-07	3.842284E-06	-3.225876E-05	-1.593641E-05	6.07487E-06	6.520598E-06	8.438252E-06	1.046779E-05
-9.409216E-06	-2.825503E-06	-3.207969E-06	-1.061407E-05	-1.745058E-05	-8.051476E-06	1.641588E-06	-1.435116E-05	-3.030551E-07	3.842284E-06	-3.225876E-05	-1.593641E-05	6.07487E-06	6.520598E-06	8.438252E-06	1.046779E-05
-1.007899E-05	-9.454348E-07	-4.222327E-06	-7.443104E-06	-1.589751E-05	-7.869548E-06	6.868298E-07	-1.50486E-05	-2.848656E-07	2.284124E-06	-3.11339E-05	-1.503915E-05	7.479024E-06	8.324402E-06	7.347649E-06	1.233303E-05
-1.007899E-05	-9.454348E-07	-4.222327E-06	-7.443104E-06	-1.589751E-05	-7.869548E-06	6.868298E-07	-1.50486E-05	-2.848656E-07	2.284124E-06	-3.11339E-05	-1.503915E-05	7.479024E-06	8.324402E-06	7.347649E-06	1.233303E-05
-1.034735E-05	-1.154872E-06	-4.344688E-06	-5.945914E-06	-1.566502E-05	-8.034257E-06	7.030104E-07	-1.572437E-05	4.582411E-07	3.076393E-07	-3.133934E-05	-1.2308E-05	8.308478E-06	8.580162E-06	7.736921E-06	1.408624E-05
-1.034735E-05	-1.154872E-06	-4.344688E-06	-5.945914E-06	-1.566502E-05	-8.034257E-06	7.030104E-07	-1.572437E-05	4.582411E-07	3.076393E-07	-3.133934E-05	-1.2308E-05	8.308478E-06	8.580162E-06	7.736921E-06	1.408624E-05
-1.031808E-05	-2.843299E-06	-3.820308E-06	-6.742417E-06	-1.665816E-05	-8.587736E-06	1.241797E-06	-1.599708E-05	1.743541E-06	-1.38842E-07	-3.124629E-05	-1.116635E-05	9.124251E-06	8.699183E-06	8.82967E-06	1.416979E-05
-1.031808E-05	-2.843299E-06	-3.820308E-06	-6.742417E-06	-1.665816E-05	-8.587736E-06	1.241797E-06	-1.599708E-05	1.743541E-06	-1.38842E-07	-3.124629E-05	-1.116635E-05	9.124251E-06	8.699183E-06	8.82967E-06	1.416979E-05
-1.115123E-05	-3.616411E-06	-3.463638E-06	-9.193131E-06	-1.731962E-05	-9.172937E-06	1.04447E-06	-1.604425E-05	6.010205E-07	9.555735E-07	-3.076332E-05	-1.188545E-05	1.004111E-05	7.737287E-06	9.889383E-06	1.434066E-05
-1.115123E-05	-3.616411E-06	-3.463638E-06	-9.193131E-06	-1.731962E-05	-9.172937E-06	1.04447E-06	-1.604425E-05	6.010205E-07	9.555735E-07	-3.076332E-05	-1.188545E-05	1.004111E-05	7.737287E-06	9.889383E-06	1.434066E-05
-1.222719E-05	-2.114332E-06	-3.271338E-06	-1.130762E-05	-1.659013E-05	-8.512335E-06	5.694479E-07	-1.774752E-05	-1.673194E-07	2.115977E-06	-3.070098E-05	-1.18725E-05	1.019878E-05	6.305668E-06	1.118556E-05	1.47572E-05
-1.222719E-05	-2.114332E-06	-3.271338E-06	-1.130762E-05	-1.659013E-05	-8.512335E-06	5.694479E-07	-1.774752E-05	-1.673194E-07	2.115977E-06	-3.070098E-05	-1.18725E-05	1.019878E-05	6.305668E-06	1.118556E-05	1.47572E-05
-1.262825E-05	1.957207E-07	-2.998192E-06	-1.127311E-05	-1.512114E-05	-6.935093E-06	4.957297E-07	-2.083542E-05	1.035832E-06	1.520855E-06	-3.177732E-05	-1.260047E-05	7.854857E-06	4.836349E-06	1.105007E-05	1.465121E-05
-1.262825E-05	1.957207E-07	-2.998192E-06	-1.127311E-05	-1.512114E-05	-6.935093E-06	4.957297E-07	-2.083542E-05	1.035832E-06	1.520855E-06	-3.177732E-05	-1.260047E-05	7.854857E-06	4.836349E-06	1.105007E-05	1.465121E-05
-1.272606E-05	7.031894E-07	-2.52038E-06	-9.340774E-06	-1.450065E-05	-6.415105E-06	5.178857E-07	-2.2536E-05	1.951257E-06	1.671247E-07	-3.238243E-05	-1.442436E-05	6.327719E-06	4.264612E-06	9.608751E-06	1.220112E-05
-1.272606E-05	7.031894E-07	-2.52038E-06	-9.340774E-06	-1.450065E-05	-6.415105E-06	5.178857E-07	-2.2536E-05	1.951257E-06	1.671247E-07	-3.238243E-05	-1.442436E-05	6.327719E-06	4.264612E-06	9.608751E-06	1.220112E-05
-1.316978E-05	-7.634519E-07	-1.588077E-06	-7.819605E-06	-1.527921E-05	-7.410556E-06	5.144733E-07	-2.21068E-05	8.64797E-07	-7.270368E-07	-3.180369E-05	-1.450974E-05	6.340901E-06	4.608282E-06	8.274042E-06	9.757503E-06
-1.316978E-05	-7.634519E-07	-1.588077E-06	-7.819605E-06	-1.527921E-05	-7.410556E-06	5.144733E-07	-2.21068E-05	8.64797E-07	-7.270368E-07	-3.180369E-05	-1.450974E-05	6.340901E-06	4.608282E-06	8.274042E-06	9.757503E-06
-1.413366E-05	-2.390449E-06	-5.615423E-07	-8.588908E-06	-1.640651E-05	-8.423215E-06	6.830493E-07	-2.021626E-05	2.396202E-07	-6.33209E-08	-3.085556E-05	-1.237991E-05	6.137703E-06	4.905923E-06	7.870744E-06	9.589568E-06
-1.413366E-05	-2.390449E-06	-5.615423E-07	-8.588908E-06	-1.640651E-05	-8.423215E-06	6.830493E-07	-2.021626E-05	2.396202E-07	-6.33209E-08	-3.085556E-05	-1.237991E-05	6.137703E-06	4.905923E-06	7.870744E-06	9.589568E-06
-1.492159E-05	-3.048219E-06	-5.042166E-07	-1.130524E-05	-1.67002E-05	-8.311473E-06	9.959925E-07	-1.682504E-05	1.224647E-06	1.171714E-06	-3.073192E-05	-1.085239E-05	5.940074E-06	5.260139E-06	7.405295E-06	1.104453E-05
-1.492159E-05	-3.048219E-06	-5.042166E-07	-1.130524E-05	-1.67002E-05	-8.311473E-06	9.959925E-07	-1.682504E-05	1.224647E-06	1.171714E-06	-3.073192E-05	-1.085239E-05	5.940074E-06	5.260139E-06	7.405295E-06	1.104453E-05
-1.422573E-05	-2.80004E-06	-1.800045E-06	-1.434935E-05	-1.630539E-05	-7.877729E-06	1.161182E-06	-1.277569E-05	1.806641E-06	3.26282E-06	-3.111072E-05	-1.155985E-05	7.315608E-06	6.307655E-06	5.728638E-06	1.16949E-05
-1.422573E-05	-2.80004E-06	-1.800045E-06	-1.434935E-05	-1.630539E-05	-7.877729E-06	1.161182E-06	-1.277569E-05	1.806641E-06	3.26282E-06	-3.111072E-05	-1.155985E-05	7.315608E-06	6.307655E-06	5.728638E-06	1.16949E-05
-1.242306E-05	-2.191149E-06	-3.107757E-06	-1.604466E-05	-1.582504E-05	-8.015021E-06	1.128045E-06	-1.035224E-05	2.263624E-06	5.973755E-06	-3.072949E-05	-1.23552E-05	8.967907E-06	8.493887E-06	3.756693E-06	1.039876E-05
-1.242306E-05	-2.191149E-06	-3.107757E-06	-1.604466E-05	-1.582504E-05	-8.015021E-06	1.128045E-06	-1.035224E-05	2.263624E-06	5.973755E-06	-3.072949E-05	-1.23552E-05	8.967907E-06	8.493887E-06	3.756693E-06	1.039876E-05
-1.185754E-05	-1.803623E-06	-2.737123E-06	-1.581508E-05	-1.513336E-05	-7.739293E-06	1.143003E-06	-1.072513E-05	2.583837E-06	8.32799E-06	-2.969843E-05	-1.228987E-05	8.665219E-06	9.784676E-06	2.985254E-06	8.306965E-06
-1.185754E-05	-1.803623E-06	-2.737123E-06	-1.581508E-05	-1.513336E-05	-7.739293E-06	1.143003E-06	-1.072513E-05	2.583837E-06	8.32799E-06	-2.969843E-05	-1.228987E-05	8.665219E-06	9.784676E-06	2.985254E-06	8.306965E-06
-1.287444E-05	-2.389587E-06	-1.675881E-06	-1.528707E-05	-1.44513E-05	-6.268605E-06	7.849019E-07	-1.136686E-05	1.4981E-06	8.130147E-06	-2.948466E-05	-1.190286E-05	6.733632E-06	9.003364E-06	4.630205E-06	7.342186E-06
-1.287444E-05	-2.389587E-06	-1.675881E-06	-1.528707E-05	-1.44513E-05	-6.268605E-06	7.849019E-07	-1.136686E-05	1.4981E-06	8.130147E-06	-2.948466E-05	-1.190286E-05	6.733632E-06	9.003364E-06	4.630205E-06	7.342186E-06
-1.338117E-05	-3.814947E-06	-1.849298E-06	-1.582519E-05	-1.463867E-05	-4.698282E-06	-3.137841E-07	-9.817925E-06	-4.800621E-07	5.727099E-06	-3.035363E-05	-1.306189E-05	5.069176E-06	6.014233E-06	6.0254E-06	8.301175E-06
-1.338117E-05	-3.814947E-06	-1.849298E-06	-1.582519E-05	-1.463867E-05	-4.698282E-06	-3.137841E-07	-9.817925E-06	-4.800621E-07	5.727099E-06	-3.035363E-05	-1.306189E-05	5.069176E-06	6.014233E-06	6.0254E-06	8.301175E-06
-1.253178E-05	-4.360734E-06	-2.271586E-06	-1.575589E-05	-1.583319E-05	-4.565055E-06	-1.153866E-06	-8.451576E-06	-1.646127E-06	5.2324E-06	-3.159267E-05	-1.53032E-05	5.831241E-06	3.67159E-06	5.654402E-06	9.937443E-06
-1.253178E-05	-4.360734E-06	-2.271586E-06	-1.575589E-05	-1.583319E-05	-4.565055E-06	-1.153866E-06	-8.451576E-06	-1.646127E-06	5.2324E-06	-3.159267E-05	-1.53032E-05	5.831241E-06	3.67159E-06	5.654402E-06	9.937443E-06
-1.141935E-05	-3.537035E-06	-1.942641E-06	-1.363932E-05	-1.69251E-05	-5.746439E-06	-1.129626E-06	-9.09602E-06	-2.660102E-06	6.489675E-06	-3.270449E-05	-1.573431E-05	7.50677E-06	3.708411E-06	4.842742E-06	1.1504E-05
-1.141935E-05	-3.537035E-06	-1.942641E-06	-1.363932E-05	-1.69251E-05	-5.746439E-06	-1.129626E-06	-9.09602E-06	-2.660102E-06	6.489675E-06	-3.270449E-05	-1.573431E-05	7.50677E-06	3.708411E-06	4.842742E-06	1.1504E-05
-1.118157E-05	-3.130564E-06	-2.141568E-06	-1.103782E-05	-1.700072E-05	-6.596852E-06	-1.14312E-06	-9.902161E-06	-1.813816E-06	6.17353E-06	-3.098027E-05	-1.461852E-05	7.861743E-06	4.640521E-06	4.871497E-06	1.108106E-05
-1.118157E-05	-3.130564E-06	-2.141568E-06	-1.103782E-05	-1.700072E-05	-6.596852E-06	-1.14312E-06	-9.902161E-06	-1.813816E-06	6.17353E-06	-3.098027E-05	-1.461852E-05	7.861743E-06	4.640521E-06	4.871497E-06	1.108106E-05
-1.163768E-05	-4.11295E-06	-3.222376E-06	-9.985512E-06	-1.696179E-05	-6.266859E-06	-1.856825E-06	-1.071916E-05	-1.894851E-06	3.301447E-06	-2.891916E-05	-1.484807E-05	7.234858E-06	5.174189E-06	4.740713E-06	9.611989E-06
-1.163768E-05	-4.11295E-06	-3.222376E-06	-9.985512E-06	-1.696179E-05	-6.266859E-06	-1.856825E-06	-1.071916E-05	-1.894851E-06	3.301447E-06	-2.891916E-05	-1.484807E-05	7.234858E-06	5.174189E-06	4.740713E-06	9.611989E-06
-1.200412E-05	-5.278788E-06	-3.909622E-06	-1.099982E-05	-1.76216E-05	-5.29572E-06	-2.967104E-06	-1.232291E-05	-3.422173E-06	1.173869E-06	-3.028411E-05	-1.557746E-05	7.184784E-06	5.85688E-06	5.153775E-06	8.531481E-06
-1.200412E-05	-5.278788E-06	-3.909622E-06	-1.099982E-05	-1.76216E-05	-5.29572E-06	-2.967104E-06	-1.232291E-05	-3.422173E-06	1.173869E-06	-3.028411E-05	-1.557746E-05	7.184784E-06	5.85688E-06	5.153775E-06	8.531481E-06
-1.217082E-05	-5.158493E-06	-3.45805E-06	-1.310339E-05	-1.805641E-05	-4.468311E-06	-3.880861E-06	-1.345062E-05	-3.616021E-06	1.481636E-06	-3.264823E-05	-1.439269E-05	6.930407E-06	5.577433E-06	5.243413E-06	8.275622E-06
-1.217082E-05	-5.158493E-06	-3.45805E-06	-1.310339E-05	-1.805641E-05	-4.468311E-06	-3.880861E-06	-1.345062E-05	-3.616021E-06	1.481636E-06	-3.264823E-05	-1.439269E-05	6.930407E-06	5.577433E-06	5.243413E-06	8.275622E-06
-1.226753E-05	-4.251284E-06	-2.78125E-06	-1.424272E-05	-1.798985E-05	-4.733998E-06	-4.25332E-06	-1.372265E-05	-1.291284E-06	2.115502E-06	-3.222543E-05	-1.415814E-05	7.13062E-06	4.070987E-06	5.02765E-06	7.748573E-06
-1.226753E-05	-4.251284E-06	-2.78125E-06	-1.424272E-05	-1.798985E-05	-4.733998E-06	-4.25332E-06	-1.372265E-05	-1.291284E-06	2.115502E-06	-3.222543E-05	-1.415814E-05	7.13062E-06	4.070987E-06	5.02765E-06	7.748573E-06
-1.22248E-05	-4.005363E-06	-2.882902E-06	-1.308324E-05	-1.778616E-05	-6.532176E-06	-4.044418E-06	-1.418629E-05	-6.299028E-07	3.338807E-06	-3.136666E-05	-1.491409E-05	8.947182E-06	3.129316E-06	5.178634E-06	6.731251E-06
-1.22248E-05	-4.005363E-06	-2.882902E-06	-1.308324E-05	-1.778616E-05	-6.532176E-06	-4.044418E-06	-1.418629E-05	-6.299028E-07	3.338807E-06	-3.136666E-05	-1.491409E-05	8.947182E-06	3.129316E-06	5.178634E-06	6.731251E-06
-1.210453E-05	-4.454492E-06	-2.933938E-06	-1.099557E-05	-1.666372E-05	-7.947514E-06	-3.221194E-06	-1.482599E-05	-1.284732E-06	3.90476E-06	-3.169381E-05	-1.546587E-05	9.933635E-06	2.730497E-06	7.346383E-06	6.431566E-06
-1.210453E-05	-4.454492E-06	-2.933938E-06	-1.099557E-05	-1.666372E-05	-7.947514E-06	-3.221194E-06	-1.482599E-05	-1.284732E-06	3.90476E-06	-3.169381E-05	-1.546587E-05	9.933635E-06	2.730497E-06	7.346383E-06	6.431566E-06
-1.222936E-05	-4.626645E-06	-2.541616E-06	-1.008543E-05	-1.525202E-05	-7.592564E-06	-1.97224E-06	-1.514026E-05	-4.245187E-07	3.283581E-06	-3.223706E-05	-1.670407E-05	8.29549E-06	2.262615E-06	1.095766E-05	6.897574E-06
-1.222936E-05	-4.626645E-06	-2.541616E-06	-1.008543E-05	-1.525202E-05	-7.592564E-06	-1.97224E-06	-1.514026E-05	-4.245187E-07	3.283581E-06	-3.223706E-05	-1.670407E-05	8.29549E-06	2.262615E-06	1.095766E-05	6.897574E-06
-1.280144E-05	-4.030658E-06	-2.650143E-06	-1.01367E-05	-1.534556E-05	-7.340643E-06	-9.577512E-07	-1.531993E-05	7.537341E-07	2.697471E-06	-3.245224E-05	-1.750503E-05	6.543698E-06	2.559507E-06	1.390799E-05	6.955987E-06
-1.280144E-05	-4.030658E-06	-2.650143E-06	-1.01367E-05	-1.534556E-05	-7.340643E-06	-9.577512E-07	-1.531993E-05	7.537341E-07	2.697471E-06	-3.245224E-05	-1.750503E-05	6.543698E-06	2.559507E-06	1.390799E-05	6.955987E-06
-1.34293E-05	-3.43524E-06	-2.689121E-06	-9.995551E-06	-1.573264E-05	-7.773981E-06	-8.556481E-07	-1.536381E-05	2.473891E-06	2.928679E-06	-3.164734E-05	-1.821177E-05	6.641267E-06	4.569657E-06	1.416123E-05	9.090022E-06
-1.34293E-05	-3.43524E-06	-2.689121E-06	-9.995551E-06	-1.573264E-05	-7.773981E-06	-8.556481E-07	-1.536381E-05	2.473891E-06	2.928679E-06	-3.164734E-05	-1.821177E-05	6.641267E-06	4.569657E-06	1.416123E-05	9.090022E-06
-1.349895E-05	-3.637627E-06	-1.589736E-06	-9.875461E-06	-1.501298E-05	-7.567942E-06	-1.798443E-06	-1.489315E-05	2.203514E-06	4.182119E-06	-3.067986E-05	-1.885715E-05	7.63257E-06	7.137881E-06	1.190942E-05	1.118809E-05
-1.349895E-05	-3.637627E-06	-1.589736E-06	-9.875461E-06	-1.501298E-05	-7.567942E-06	-1.798443E-06	-1.489315E-05	2.203514E-06	4.182119E-06	-3.067986E-05	-1.885715E-05	7.63257E-06	7.137881E-06	1.190942E-05	1.118809E-05
-1.292364E-05	-4.301761E-06	-1.195325E-07	-1.075083E-05	-1.49267E-05	-7.18742E-06	-3.139151E-06	-1.41678E-05	4.83903E-07	4.105902E-06	-2.992617E-05	-1.937545E-05	8.73578E-06	6.727618E-06	1.080835E-05	9.948225E-06
-1.292364E-05	-4.301761E-06	-1.195325E-07	-1.075083E-05	-1.49267E-05	-7.18742E-06	-3.139151E-06	-1.41678E-05	4.83903E-07	4.105902E-06	-2.992617E-05	-1.937545E-05	8.73578E-06	6.727618E-06	1.080835E-05	9.948225E-06
-1.226999E-05	-5.382131E-06	4.913093E-07	-1.27834E-05	-1.649452E-05	-7.306262E-06	-3.742033E-06	-1.426269E-05	-1.208141E-06	3.018353E-06	-3.030177E-05	-1.887909E-05	1.01138E-05	5.261941E-06	1.035081E-05	7.448823E-06
-1.226999E-05	-5.382131E-06	4.913093E-07	-1.27834E-05	-1.649452E-05	-7.306262E-06	-3.742033E-06	-1.426269E-05	-1.208141E-06	3.018353E-06	-3.030177E-05	-1.887909E-05	1.01138E-05	5.261941E-06	1.035081E-05	7.448823E-06
-1.204684E-05	-6.846441E-06	-4.100855E-08	-1.468243E-05	-1.844754E-05	-7.637564E-06	-3.373837E-06	-1.638649E-05	-1.802723E-06	2.103851E-06	-3.259223E-05	-1.781498E-05	1.018967E-05	4.658464E-06	1.081287E-05	8.335682E-06
-1.204684E-05	-6.846441E-06	-4.100855E-08	-1.468243E-05	-1.844754E-05	-7.637564E-06	-3.373837E-06	-1.638649E-05	-1.802723E-06	2.103851E-06	-3.259223E-05	-1.781498E-05	1.018967E-05	4.658464E-06	1.081287E-05	8.335682E-06
-1.209823E-05	-7.69281E-06	-1.236176E-06	-1.446566E-05	-1.958553E-05	-8.321428E-06	-3.219175E-06	-2.045769E-05	-8.121445E-07	2.212259E-06	-3.495708E-05	-1.786179E-05	9.157203E-06	5.825332E-06	1.272958E-05	1.140596E-05
-1.209823E-05	-7.69281E-06	-1.236176E-06	-1.446566E-05	-1.958553E-05	-8.321428E-06	-3.219175E-06	-2.045769E-05	-8.121445E-07	2.212259E-06	-3.495708E-05	-1.786179E-05	9.157203E-06	5.825332E-06	1.272958E-05	1.140596E-05
-1.215046E-05	-7.935821E-06	-2.407421E-06	-1.155354E-05	-1.963919E-05	-9.204533E-06	-3.68347E-06	-2.333592E-05	5.015336E-07	2.529246E-06	-3.506914E-05	-1.843383E-05	8.20927E-06	7.063636E-06	1.498155E-05	1.254231E-05
-1.215046E-05	-7.935821E-06	-2.407421E-06	-1.155354E-05	-1.963919E-05	-9.204533E-06	-3.68347E-06	-2.333592E-05	5.015336E-07	2.529246E-06	-3.506914E-05	-1.843383E-05	8.20927E-06	7.063636E-06	1.498155E-05	1.254231E-05
-1.209567E-05	-8.279028E-06	-3.002139E-06	-7.554313E-06	-1.871332E-05	-9.599211E-06	-3.823771E-06	-2.153786E-05	1.205164E-06	3.147019E-06	-3.343383E-05	-1.916722E-05	7.886245E-06	8.027557E-06	1.595239E-05	1.278878E-05
-1.209567E-05	-8.279028E-06	-3.002139E-06	-7.554313E-06	-1.871332E-05	-9.599211E-06	-3.823771E-06	-2.153786E-05	1.205164E-06	3.147019E-06	-3.343383E-05	-1.916722E-05	7.886245E-06	8.027557E-06	1.595239E-05	1.278878E-05
-1.166163E-05	-7.765318E-06	-2.740433E-06	-4.353207E-06	-1.681741E-05	-9.600412E-06	-3.444947E-06	-1.590249E-05	9.995823E-07	4.393214E-06	-3.217989E-05	-1.897654E-05	8.191236E-06	8.580025E-06	1.623543E-05	1.303921E-05
-1.166163E-05	-7.765318E-06	-2.740433E-06	-4.353207E-06	-1.681741E-05	-9.600412E-06	-3.444947E-06	-1.590249E-05	9.995823E-07	4.393214E-06	-3.217989E-05	-1.897654E-05	8.191236E-06	8.580025E-06	1.623543E-05	1.303921E-05
-1.102384E-05	-5.851574E-06	-2.07386E-06	-2.162845E-06	-1.479093E-05	-9.821988E-06	-3.361094E-06	-8.988335E-06	1.002259E-06	5.089292E-06	-3.223148E-05	-1.851627E-05	8.826475E-06	8.25584E-06	1.745124E-05	1.370254E-05
-1.102384E-05	-5.851574E-06	-2.07386E-06	-2.162845E-06	-1.479093E-05	-9.821988E-06	-3.361094E-06	-8.988335E-06	1.002259E-06	5.089292E-06	-3.223148E-05	-1.851627E-05	8.826475E-06	8.25584E-06	1.745124E-05	1.370254E-05
-1.070376E-05	-4.065758E-06	-2.00132E-06	-2.371982E-07	-1.407685E-05	-1.014238E-05	-3.913083E-06	-1.834987E-06	1.65912E-06	4.447005E-06	-3.272275E-05	-1.803059E-05	8.849631E-06	7.678863E-06	1.884897E-05	1.409949E-05
-1.070376E-05	-4.065758E-06	-2.00132E-06	-2.371982E-07	-1.407685E-05	-1.014238E-05	-3.913083E-06	-1.834987E-06	1.65912E-06	4.447005E-06	-3.272275E-05	-1.803059E-05	8.849631E-06	7.678863E-06	1.884897E-05	1.409949E-05
-1.034358E-05	-3.503607E-06	-2.935518E-06	1.069441E-06	-1.452811E-05	-9.662403E-06	-4.267617E-06	3.616696E-06	2.329288E-06	2.766525E-06	-3.21521E-05	-1.764503E-05	7.896834E-06	7.654171E-06	1.885127E-05	1.303915E-05
-1.034358E-05	-3.503607E-06	-2.935518E-06	1.069441E-06	-1.452811E-05	-9.662403E-06	-4.267617E-06	3.616696E-06	2.329288E-06	2.766525E-06	-3.21521E-05	-1.764503E-05	7.896834E-06	7.654171E-06	1.885127E-05	1.303915E-05
-9.642357E-06	-3.495639E-06	-4.065088E-06	1.775413E-06	-1.486106E-05	-8.355461E-06	-3.763404E-06	4.66879E-06	1.991714E-06	2.066758E-06	-3.046892E-05	-1.750452E-05	7.661156E-06	8.973236E-06	1.778008E-05	1.066652E-05
-9.642357E-06	-3.495639E-06	-4.065088E-06	1.775413E-06	-1.486106E-05	-8.355461E-06	-3.763404E-06	4.66879E-06	1.991714E-06	2.066758E-06	-3.046892E-05	-1.750452E-05	7.661156E-06	8.973236E-06	1.778008E-05	1.066652E-05
-9.465877E-06	-2.92604E-06	-4.333222E-06	3.775656E-06	-1.465485E-05	-7.672957E-06	-2.98289E-06	8.323736E-07	2.304573E-06	2.672694E-06	-2.936977E-05	-1.692788E-05	8.959509E-06	9.605217E-06	1.786576E-05	9.177383E-06
-9.465877E-06	-2.92604E-06	-4.333222E-06	3.775656E-06	-1.465485E-05	-7.672957E-06	-2.98289E-06	8.323736E-07	2.304573E-06	2.672694E-06	-2.936977E-05	-1.692788E-05	8.959509E-06	9.605217E-06	1.786576E-05	9.177383E-06
-1.018777E-05	-2.190646E-06	-4.29154E-06	7.551514E-06	-1.432813E-05	-8.342075E-06	-2.313794E-06	-5.336033E-06	4.003535E-06	2.671795E-06	-3.088635E-05	-1.583553E-05	1.013047E-05	8.61514E-06	1.952778E-05	8.964265E-06
-1.018777E-05	-2.190646E-06	-4.29154E-06	7.551514E-06	-1.432813E-05	-8.342075E-06	-2.313794E-06	-5.336033E-06	4.003535E-06	2.671795E-06	-3.088635E-05	-1.583553E-05	1.013047E-05	8.61514E-06	1.952778E-05	8.964265E-06
-1.098458E-05	-2.324683E-06	-4.952463E-06	1.04868E-05	-1.433401E-05	-9.362067E-06	-1.480938E-06	-1.009803E-05	5.811765E-06	7.925093E-07	-3.357651E-05	-1.533722E-05	9.645549E-06	6.78034E-06	2.017232E-05	9.484456E-06
-1.098458E-05	-2.324683E-06	-4.952463E-06	1.04868E-05	-1.433401E-05	-9.362067E-06	-1.480938E-06	-1.009803E-05	5.811765E-06	7.925093E-07	-3.357651E-05	-1.533722E-05	9.645549E-06	6.78034E-06	2.017232E-05	9.484456E-06
-1.123422E-05	-2.563071E-06	-5.418176E-06	9.807407E-06	-1.467679E-05	-9.494724E-06	-6.557249E-07	-1.190832E-05	6.299112E-06	-1.052713E-06	-3.310979E-05	-1.572571E-05	8.373815E-06	6.289744E-06	1.810893E-05	1.022926E-05
-1.123422E-05	-2.563071E-06	-5.418176E-06	9.807407E-06	-1.467679E-05	-9.494724E-06	-6.557249E-07	-1.190832E-05	6.299112E-06	-1.052713E-06	-3.310979E-05	-1.572571E-05	8.373815E-06	6.289744E-06	1.810893E-05	1.022926E-05
-1.121413E-05	-1.733949E-06	-4.900141E-06	6.356711E-06	-1.473674E-05	-8.518435E-06	-3.457654E-07	-1.20774E-05	4.989997E-06	-5.458428E-07	-2.977703E-05	-1.612455E-05	7.271631E-06	6.605554E-06	1.590004E-05	1.001533E-05
-1.121413E-05	-1.733949E-06	-4.900141E-06	6.356711E-06	-1.473674E-05	-8.518435E-06	-3.457654E-07	-1.20774E-05	4.989997E-06	-5.458428E-07	-2.977703E-05	-1.612455E-05	7.271631E-06	6.605554E-06	1.590004E-05	1.001533E-05
-1.143891E-05	-4.937933E-07	-4.395948E-06	3.296415E-06	-1.418983E-05	-7.089763E-06	-7.179468E-07	-1.22431E-05	2.824999E-06	1.481651E-06	-2.890088E-05	-1.571996E-05	7.25799E-06	7.368049E-06	1.582691E-05	9.8937E-06
-1.143891E-05	-4.937933E-07	-4.395948E-06	3.296415E-06	-1.418983E-05	-7.089763E-06	-7.179468E-07	-1.22431E-05	2.824999E-06	1.481651E-06	-2.890088E-05	-1.571996E-05	7.25799E-06	7.368049E-06	1.582691E-05	9.8937E-06
-1.173224E-05	-4.085687E-07	-4.595541E-06	9.169366E-07	-1.3918E-05	-5.788665E-06	-1.444002E-06	-1.264069E-05	-4.615893E-07	2.4814E-06	-3.101708E-05	-1.560982E-05	7.854491E-06	8.528031E-06	1.579784E-05	1.058237E-05
-1.173224E-05	-4.085687E-07	-4.595541E-06	9.169366E-07	-1.3918E-05	-5.788665E-06	-1.444002E-06	-1.264069E-05	-4.615893E-07	2.4814E-06	-3.101708E-05	-1.560982E-05	7.854491E-06	8.528031E-06	1.579784E-05	1.058237E-05
-1.169694E-05	-1.45552E-06	-4.754742E-06	-2.666384E-06	-1.44074E-05	-5.15133E-06	-2.208949E-06	-1.283428E-05	-3.109132E-06	1.879971E-06	-3.234711E-05	-1.664778E-05	7.920111E-06	9.446362E-06	1.488819E-05	1.052782E-05
-1.169694E-05	-1.45552E-06	-4.754742E-06	-2.666384E-06	-1.44074E-05	-5.15133E-06	-2.208949E-06	-1.283428E-05	-3.109132E-06	1.879971E-06	-3.234711E-05	-1.664778E-05	7.920111E-06	9.446362E-06	1.488819E-05	1.052782E-05
-1.149886E-05	-1.93015E-06	-3.979152E-06	-7.344064E-06	-1.471939E-05	-5.612743E-06	-3.036417E-06	-1.274157E-05	-2.949625E-06	1.50474E-06	-3.196855E-05	-1.752609E-05	7.86086E-06	7.953425E-06	1.404342E-05	9.987866E-06
-1.149886E-05	-1.93015E-06	-3.979152E-06	-7.344064E-06	-1.471939E-05	-5.612743E-06	-3.036417E-06	-1.274157E-05	-2.949625E-06	1.50474E-06	-3.196855E-05	-1.752609E-05	7.86086E-06	7.953425E-06	1.404342E-05	9.987866E-06
-1.198583E-05	-1.635123E-06	-3.178466E-06	-1.183921E-05	-1.45325E-05	-6.219556E-06	-3.392169E-06	-1.250215E-05	-2.193726E-06	1.803669E-06	-3.139451E-05	-1.799483E-05	9.062489E-06	5.94623E-06	1.32648E-05	8.111077E-06
-1.198583E-05	-1.635123E-06	-3.178466E-06	-1.183921E-05	-1.45325E-05	-6.219556E-06	-3.392169E-06	-1.250215E-05	-2.193726E-06	1.803669E-06	-3.139451E-05	-1.799483E-05	9.062489E-06	5.94623E-06	1.32648E-05	8.111077E-06
-1.368119E-05	-2.032155E-06	-3.742061E-06	-1.632793E-05	-1.469645E-05	-5.649224E-06	-2.533236E-06	-1.191908E-05	-2.037022E-06	2.987582E-06	-3.055275E-05	-1.876037E-05	1.103299E-05	5.258465E-06	1.214671E-05	7.144662E-06
-1.368119E-05	-2.032155E-06	-3.742061E-06	-1.632793E-05	-1.469645E-05	-5.649224E-06	-2.533236E-06	-1.191908E-05	-2.037022E-06	2.987582E-06	-3.055275E-05	-1.876037E-05	1.103299E-05	5.258465E-06	1.214671E-05	7.144662E-06
-1.470837E-05	-3.380576E-06	-4.550816E-06	-1.981987E-05	-1.558274E-05	-4.626142E-06	-1.421413E-06	-9.964501E-06	-2.662538E-06	3.311707E-06	-3.027189E-05	-1.963548E-05	1.082277E-05	5.714715E-06	1.071233E-05	7.304965E-06
-1.470837E-05	-3.380576E-06	-4.550816E-06	-1.981987E-05	-1.558274E-05	-4.626142E-06	-1.421413E-06	-9.964501E-06	-2.662538E-06	3.311707E-06	-3.027189E-05	-1.963548E-05	1.082277E-05	5.714715E-06	1.071233E-05	7.304965E-06
-1.367822E-05	-4.520531E-06	-4.142207E-06	-2.065836E-05	-1.615507E-05	-4.665435E-06	-1.729526E-06	-5.522739E-06	-4.232485E-06	2.575028E-06	-3.110986E-05	-1.857336E-05	1.015751E-05	5.959284E-06	1.02962E-05	9.695674E-06
-1.367822E-05	-4.520531E-06	-4.142207E-06	-2.065836E-05	-1.615507E-05	-4.665435E-06	-1.729526E-06	-5.522739E-06	-4.232485E-06	2.575028E-06	-3.110986E-05	-1.857336E-05	1.015751E-05	5.959284E-06	1.02962E-05	9.695674E-06
-1.325224E-05	-4.832209E-06	-3.426522E-06	-2.049944E-05	-1.527142E-05	-5.468527E-06	-3.033702E-06	2.647543E-07	-4.598845E-06	1.563591E-06	-3.256803E-05	-1.6982E-05	9.854365E-06	5.805366E-06	1.047639E-05	1.339389E-05
-1.325224E-05	-4.832209E-06	-3.426522E-06	-2.049944E-05	-1.527142E-05	-5.468527E-06	-3.033702E-06	2.647543E-07	-4.598845E-06	1.563591E-06	-3.256803E-05	-1.6982E-05	9.854365E-06	5.805366E-06	1.047639E-05	1.339389E-05
-1.548171E-05	-5.228831E-06	-3.597071E-06	-1.915508E-05	-1.388058E-05	-5.542031E-06	-3.471062E-06	3.479037E-06	-4.945869E-06	1.086577E-07	-3.274713E-05	-1.784375E-05	8.9574E-06	6.398733E-06	1.153939E-05	1.319707E-05
-1.548171E-05	-5.228831E-06	-3.597071E-06	-1.915508E-05	-1.388058E-05	-5.542031E-06	-3.471062E-06	3.479037E-06	-4.945869E-06	1.086577E-07	-3.274713E-05	-1.784375E-05	8.9574E-06	6.398733E-06	1.153939E-05	1.319707E-05
-1.825192E-05	-6.287296E-06	-4.277525E-06	-1.471124E-05	-1.372829E-05	-4.651162E-06	-2.872907E-06	2.238598E-06	-5.518169E-06	-3.818051E-07	-2.999062E-05	-2.087886E-05	8.739934E-06	6.997194E-06	1.199573E-05	1.220351E-05
-1.825192E-05	-6.287296E-06	-4.277525E-06	-1.471124E-05	-1.372829E-05	-4.651162E-06	-2.872907E-06	2.238598E-06	-5.518169E-06	-3.818051E-07	-2.999062E-05	-2.087886E-05	8.739934E-06	6.997194E-06	1.199573E-05	1.220351E-05
-1.875961E-05	-6.96324E-06	-4.603431E-06	-1.043652E-05	-1.482888E-05	-4.00899E-06	-2.567327E-06	-1.262119E-06	-3.998128E-06	-1.168002E-06	-2.853963E-05	-2.305381E-05	8.912257E-06	6.402989E-06	1.089005E-05	1.275176E-05
-1.875961E-05	-6.96324E-06	-4.603431E-06	-1.043652E-05	-1.482888E-05	-4.00899E-06	-2.567327E-06	-1.262119E-06	-3.998128E-06	-1.168002E-06	-2.853963E-05	-2.305381E-05	8.912257E-06	6.402989E-06	1.089005E-05	1.275176E-05
-1.667391E-05	-6.515912E-06	-4.663598E-06	-1.038475E-05	-1.590352E-05	-4.142159E-06	-2.432728E-06	-5.58276E-06	-1.487166E-06	-5.346648E-07	-2.981085E-05	-2.390891E-05	9.121858E-06	5.371223E-06	1.04896E-05	1.374475E-05
-1.667391E-05	-6.515912E-06	-4.663598E-06	-1.038475E-05	-1.590352E-05	-4.142159E-06	-2.432728E-06	-5.58276E-06	-1.487166E-06	-5.346648E-07	-2.981085E-05	-2.390891E-05	9.121858E-06	5.371223E-06	1.04896E-05	1.374475E-05
-1.379833E-05	-5.724837E-06	-5.18518E-06	-1.385142E-05	-1.601169E-05	-4.423422E-06	-1.914409E-06	-1.067802E-05	-1.03654E-06	2.377492E-06	-3.155467E-05	-2.417993E-05	8.236145E-06	5.254335E-06	1.135918E-05	1.42813E-05
-1.379833E-05	-5.724837E-06	-5.18518E-06	-1.385142E-05	-1.601169E-05	-4.423422E-06	-1.914409E-06	-1.067802E-05	-1.03654E-06	2.377492E-06	-3.155467E-05	-2.417993E-05	8.236145E-06	5.254335E-06	1.135918E-05	1.42813E-05
-1.203264E-05	-5.690874E-06	-6.283796E-06	-1.766086E-05	-1.549732E-05	-4.336056E-06	-2.09863E-06	-1.569324E-05	-3.744541E-06	4.98025E-06	-3.186749E-05	-2.29997E-05	7.919637E-06	6.429716E-06	1.231141E-05	1.518956E-05
-1.203264E-05	-5.690874E-06	-6.283796E-06	-1.766086E-05	-1.549732E-05	-4.336056E-06	-2.09863E-06	-1.569324E-05	-3.744541E-06	4.98025E-06	-3.186749E-05	-2.29997E-05	7.919637E-06	6.429716E-06	1.231141E-05	1.518956E-05
-1.15036E-05	-6.044996E-06	-6.967564E-06	-1.948251E-05	-1.558113E-05	-4.170224E-06	-3.428658E-06	-2.019824E-05	-5.669453E-06	5.980113E-06	-3.112432E-05	-2.064631E-05	8.211121E-06	7.80751E-06	1.223404E-05	1.611345E-05
-1.15036E-05	-6.044996E-06	-6.967564E-06	-1.948251E-05	-1.558113E-05	-4.170224E-06	-3.428658E-06	-2.019824E-05	-5.669453E-06	5.980113E-06	-3.112432E-05	-2.064631E-05	8.211121E-06	7.80751E-06	1.223404E-05	1.611345E-05
-1.124345E-05	-5.545964E-06	-6.66465E-06	-1.953919E-05	-1.673496E-05	-4.44537E-06	-4.676105E-06	-2.33032E-05	-5.269756E-06	6.265807E-06	-2.982248E-05	-1.981778E-05	8.895754E-06	7.349935E-06	1.192297E-05	1.69495E-05
-1.124345E-05	-5.545964E-06	-6.66465E-06	-1.953919E-05	-1.673496E-05	-4.44537E-06	-4.676105E-06	-2.33032E-05	-5.269756E-06	6.265807E-06	-2.982248E-05	-1.981778E-05	8.895754E-06	7.349935E-06	1.192297E-05	1.69495E-05
-1.121461E-05	-4.353808E-06	-6.701063E-06	-2.003416E-05	-1.787337E-05	-4.896073E-06	-4.940901E-06	-2.245285E-05	-5.19645E-06	6.860361E-06	-2.918277E-05	-2.011414E-05	9.228913E-06	7.66724E-06	1.310072E-05	1.639322E-05
-1.121461E-05	-4.353808E-06	-6.701063E-06	-2.003416E-05	-1.787337E-05	-4.896073E-06	-4.940901E-06	-2.245285E-05	-5.19645E-06	6.860361E-06	-2.918277E-05	-2.011414E-05	9.228913E-06	7.66724E-06	1.310072E-05	1.639322E-05
-1.145541E-05	-3.669147E-06	-7.675482E-06	-2.165511E-05	-1.787731E-05	-5.050415E-06	-4.151301E-06	-1.72873E-05	-5.921551E-06	7.475507E-06	-3.007041E-05	-1.975556E-05	8.673011E-06	9.2124E-06	1.397326E-05	1.500555E-05
-1.145541E-05	-3.669147E-06	-7.675482E-06	-2.165511E-05	-1.787731E-05	-5.050415E-06	-4.151301E-06	-1.72873E-05	-5.921551E-06	7.475507E-06	-3.007041E-05	-1.975556E-05	8.673011E-06	9.2124E-06	1.397326E-05	1.500555E-05
-1.146583E-05	-3.985703E-06	-8.020997E-06	-2.269995E-05	-1.685082E-05	-4.906087E-06	-2.714132E-06	-1.140217E-05	-6.431368E-06	8.022083E-06	-3.127195E-05	-1.867719E-05	7.412699E-06	9.729712E-06	1.216522E-05	1.461182E-05
-1.146583E-05	-3.985703E-06	-8.020997E-06	-2.269995E-05	-1.685082E-05	-4.906087E-06	-2.714132E-06	-1.140217E-05	-6.431368E-06	8.022083E-06	-3.127195E-05	-1.867719E-05	7.412699E-06	9.729712E-06	1.216522E-05	1.461182E-05
-1.183796E-05	-4.744347E-06	-7.121131E-06	-2.279091E-05	-1.543154E-05	-4.382846E-06	-1.547169E-06	-8.7189E-06	-5.505713E-06	7.860236E-06	-3.138964E-05	-1.794197E-05	6.543591E-06	8.11673E-06	1.037987E-05	1.540923E-05
-1.183796E-05	-4.744347E-06	-7.121131E-06	-2.279091E-05	-1.543154E-05	-4.382846E-06	-1.547169E-06	-8.7189E-06	-5.505713E-06	7.860236E-06	-3.138964E-05	-1.794197E-05	6.543591E-06	8.11673E-06	1.037987E-05	1.540923E-05
-1.305929E-05	-5.041092E-06	-5.755917E-06	-2.294381E-05	-1.455968E-05	-3.942014E-06	-1.459541E-06	-1.094898E-05	-3.26066E-06	6.414306E-06	-3.020269E-05	-1.728499E-05	6.555276E-06	6.165104E-06	1.026508E-05	1.72028E-05
-1.305929E-05	-5.041092E-06	-5.755917E-06	-2.294381E-05	-1.455968E-05	-3.942014E-06	-1.459541E-06	-1.094898E-05	-3.26066E-06	6.414306E-06	-3.020269E-05	-1.728499E-05	6.555276E-06	6.165104E-06	1.026508E-05	1.72028E-05
-1.399861E-05	-4.508318E-06	-4.336588E-06	-2.273328E-05	-1.522674E-05	-4.679729E-06	-2.152766E-06	-1.704755E-05	-1.232302E-06	4.42264E-06	-2.891076E-05	-1.627741E-05	6.244539E-06	5.805888E-06	1.146382E-05	1.777777E-05
-1.399861E-05	-4.508318E-06	-4.336588E-06	-2.273328E-05	-1.522674E-05	-4.679729E-06	-2.152766E-06	-1.704755E-05	-1.232302E-06	4.42264E-06	-2.891076E-05	-1.627741E-05	6.244539E-06	5.805888E-06	1.146382E-05	1.777777E-05
-1.389629E-05	-3.479943E-06	-3.402888E-06	-2.093379E-05	-1.713669E-05	-6.088042E-06	-2.054577E-06	-2.347564E-05	-1.752454E-06	4.082277E-06	-2.830344E-05	-1.66544E-05	5.698646E-06	7.416696E-06	1.271351E-05	1.676879E-05
-1.389629E-05	-3.479943E-06	-3.402888E-06	-2.093379E-05	-1.713669E-05	-6.088042E-06	-2.054577E-06	-2.347564E-05	-1.752454E-06	4.082277E-06	-2.830344E-05	-1.66544E-05	5.698646E-06	7.416696E-06	1.271351E-05	1.676879E-05
-1.330857E-05	-2.496339E-06	-3.391146E-06	-1.731176E-05	-1.898954E-05	-6.756783E-06	-4.602453E-07	-2.68744E-05	-2.552043E-06	4.904741E-06	-2.841557E-05	-1.922282E-05	5.783384E-06	8.15051E-06	1.34036E-05	1.495667E-05
-1.330857E-05	-2.496339E-06	-3.391146E-06	-1.731176E-05	-1.898954E-05	-6.756783E-06	-4.602453E-07	-2.68744E-05	-2.552043E-06	4.904741E-06	-2.841557E-05	-1.922282E-05	5.783384E-06	8.15051E-06	1.34036E-05	1.495667E-05
-1.290914E-05	-1.735043E-06	-3.606977E-06	-1.282945E-05	-2.000869E-05	-7.064739E-06	8.563162E-07	-2.713259E-05	-1.423825E-06	4.954702E-06	-2.901031E-05	-2.081029E-05	6.212606E-06	6.28072E-06	1.388596E-05	1.380129E-05
-1.290914E-05	-1.735043E-06	-3.606977E-06	-1.282945E-05	-2.000869E-05	-7.064739E-06	8.563162E-07	-2.713259E-05	-1.423825E-06	4.954702E-06	-2.901031E-05	-2.081029E-05	6.212606E-06	6.28072E-06	1.388596E-05	1.380129E-05
-1.299232E-05	-8.597304E-07	-3.435709E-06	-8.955616E-06	-1.976757E-05	-7.611275E-06	5.779928E-07	-2.693271E-05	-5.801445E-07	3.677184E-06	-2.969007E-05	-2.075786E-05	7.241575E-06	4.553115E-06	1.407595E-05	1.347535E-05
-1.299232E-05	-8.597304E-07	-3.435709E-06	-8.955616E-06	-1.976757E-05	-7.611275E-06	5.779928E-07	-2.693271E-05	-5.801445E-07	3.677184E-06	-2.969007E-05	-2.075786E-05	7.241575E-06	4.553115E-06	1.407595E-05	1.347535E-05
-1.334922E-05	2.762533E-07	-3.400724E-06	-6.671145E-06	-1.824133E-05	-7.671399E-06	-1.914411E-07	-2.790557E-05	-7.270436E-07	1.990654E-06	-3.089135E-05	-2.041049E-05	8.510444E-06	4.119447E-06	1.467782E-05	1.425504E-05
-1.334922E-05	2.762533E-07	-3.400724E-06	-6.671145E-06	-1.824133E-05	-7.671399E-06	-1.914411E-07	-2.790557E-05	-7.270436E-07	1.990654E-06	-3.089135E-05	-2.041049E-05	8.510444E-06	4.119447E-06	1.467782E-05	1.425504E-05
-1.330531E-05	9.740481E-07	-4.140765E-06	-5.900989E-06	-1.679723E-05	-6.947467E-06	-3.025916E-07	-2.829083E-05	7.64663E-07	1.256083E-06	-3.146119E-05	-1.979922E-05	7.928667E-06	3.863189E-06	1.585199E-05	1.541104E-05
-1.330531E-05	9.740481E-07	-4.140765E-06	-5.900989E-06	-1.679723E-05	-6.947467E-06	-3.025916E-07	-2.829083E-05	7.64663E-07	1.256083E-06	-3.146119E-05	-1.979922E-05	7.928667E-06	3.863189E-06	1.585199E-05	1.541104E-05
-1.243562E-05	5.19038E-07	-5.232097E-06	-6.468607E-06	-1.683309E-05	-6.081329E-06	-8.479212E-08	-2.631102E-05	2.523932E-06	1.669244E-06	-3.065793E-05	-2.064218E-05	7.898049E-06	3.080804E-06	1.546935E-05	1.650199E-05
-1.243562E-05	5.19038E-07	-5.232097E-06	-6.468607E-06	-1.683309E-05	-6.081329E-06	-8.479212E-08	-2.631102E-05	2.523932E-06	1.669244E-06	-3.065793E-05	-2.064218E-05	7.898049E-06	3.080804E-06	1.546935E-05	1.650199E-05
-1.111351E-05	-7.436078E-07	-5.66447E-06	-8.425727E-06	-1.795027E-05	-5.616264E-06	-3.853525E-07	-2.329841E-05	2.513721E-06	7.491902E-07	-3.045092E-05	-2.096265E-05	8.504448E-06	1.410819E-06	1.229742E-05	1.733389E-05
-1.111351E-05	-7.436078E-07	-5.66447E-06	-8.425727E-06	-1.795027E-05	-5.616264E-06	-3.853525E-07	-2.329841E-05	2.513721E-06	7.491902E-07	-3.045092E-05	-2.096265E-05	8.504448E-06	1.410819E-06	1.229742E-05	1.733389E-05
-9.97273E-06	-1.795121E-06	-5.52718E-06	-1.131385E-05	-1.832029E-05	-5.469142E-06	-1.134648E-06	-2.151226E-05	1.371383E-06	-2.779717E-07	-3.147351E-05	-2.171206E-05	7.459384E-06	1.692432E-06	1.044796E-05	1.668112E-05
-9.97273E-06	-1.795121E-06	-5.52718E-06	-1.131385E-05	-1.832029E-05	-5.469142E-06	-1.134648E-06	-2.151226E-05	1.371383E-06	-2.779717E-07	-3.147351E-05	-2.171206E-05	7.459384E-06	1.692432E-06	1.044796E-05	1.668112E-05
-9.124667E-06	-2.120335E-06	-5.598128E-06	-1.435617E-05	-1.677849E-05	-5.157905E-06	-1.453305E-06	-2.131957E-05	-1.202154E-06	-1.321806E-06	-3.358967E-05	-2.426534E-05	5.354279E-06	2.699544E-06	1.23362E-05	1.711042E-05
-9.124667E-06	-2.120335E-06	-5.598128E-06	-1.435617E-05	-1.677849E-05	-5.157905E-06	-1.453305E-06	-2.131957E-05	-1.202154E-06	-1.321806E-06	-3.358967E-05	-2.426534E-05	5.354279E-06	2.699544E-06	1.23362E-05	1.711042E-05
-8.726833E-06	-2.049941E-06	-5.628815E-06	-1.540666E-05	-1.52294E-05	-4.660968E-06	-7.940939E-07	-2.087495E-05	-1.675977E-06	-1.522193E-06	-3.485928E-05	-2.477966E-05	3.950174E-06	2.882013E-06	1.419628E-05	1.795079E-05
-8.726833E-06	-2.049941E-06	-5.628815E-06	-1.540666E-05	-1.52294E-05	-4.660968E-06	-7.940939E-07	-2.087495E-05	-1.675977E-06	-1.522193E-06	-3.485928E-05	-2.477966E-05	3.950174E-06	2.882013E-06	1.419628E-05	1.795079E-05
-9.068695E-06	-2.067004E-06	-5.09971E-06	-1.389953E-05	-1.607078E-05	-4.742848E-06	1.432584E-08	-1.86989E-05	-1.497544E-06	7.343517E-07	-3.414205E-05	-2.390904E-05	4.098602E-06	4.924283E-06	1.437002E-05	1.689448E-05
-9.068695E-06	-2.067004E-06	-5.09971E-06	-1.389953E-05	-1.607078E-05	-4.742848E-06	1.432584E-08	-1.86989E-05	-1.497544E-06	7.343517E-07	-3.414205E-05	-2.390904E-05	4.098602E-06	4.924283E-06	1.437002E-05	1.689448E-05
-9.623278E-06	-2.333881E-06	-4.281285E-06	-1.33895E-05	-1.800425E-05	-5.805915E-06	-2.30166E-07	-1.529975E-05	-3.279933E-06	2.107719E-06	-3.403985E-05	-2.461844E-05	4.877701E-06	5.716223E-06	1.371426E-05	1.653238E-05
-9.623278E-06	-2.333881E-06	-4.281285E-06	-1.33895E-05	-1.800425E-05	-5.805915E-06	-2.30166E-07	-1.529975E-05	-3.279933E-06	2.107719E-06	-3.403985E-05	-2.461844E-05	4.877701E-06	5.716223E-06	1.371426E-05	1.653238E-05
-9.964061E-06	-2.58362E-06	-3.593242E-06	-1.399283E-05	-1.855232E-05	-7.017893E-06	-4.345646E-07	-1.162117E-05	-3.865605E-06	3.101916E-06	-3.508134E-05	-2.43973E-05	4.089208E-06	5.667464E-06	1.323763E-05	1.715356E-05
-9.964061E-06	-2.58362E-06	-3.593242E-06	-1.399283E-05	-1.855232E-05	-7.017893E-06	-4.345646E-07	-1.162117E-05	-3.865605E-06	3.101916E-06	-3.508134E-05	-2.43973E-05	4.089208E-06	5.667464E-06	1.323763E-05	1.715356E-05
-1.040664E-05	-2.893149E-06	-3.264552E-06	-1.25787E-05	-1.768052E-05	-7.496289E-06	3.84324E-07	-8.381892E-06	-2.930782E-06	3.596904E-06	-3.429856E-05	-2.322351E-05	2.951701E-06	4.049676E-06	1.273186E-05	1.616638E-05
-1.040664E-05	-2.893149E-06	-3.264552E-06	-1.25787E-05	-1.768052E-05	-7.496289E-06	3.84324E-07	-8.381892E-06	-2.930782E-06	3.596904E-06	-3.429856E-05	-2.322351E-05	2.951701E-06	4.049676E-06	1.273186E-05	1.616638E-05
-1.09108E-05	-3.96007E-06	-3.470495E-06	-1.032363E-05	-1.656649E-05	-7.3418E-06	3.134683E-07	-6.333715E-06	-2.46495E-06	3.499753E-06	-3.302819E-05	-2.2987E-05	3.303466E-06	1.433466E-06	1.342361E-05	1.529285E-05
-1.09108E-05	-3.96007E-06	-3.470495E-06	-1.032363E-05	-1.656649E-05	-7.3418E-06	3.134683E-07	-6.333715E-06	-2.46495E-06	3.499753E-06	-3.302819E-05	-2.2987E-05	3.303466E-06	1.433466E-06	1.342361E-05	1.529285E-05
-1.111702E-05	-5.436447E-06	-4.138942E-06	-9.667346E-06	-1.562421E-05	-7.038673E-06	-1.806319E-06	-5.811151E-06	-2.762324E-06	1.897832E-06	-3.270705E-05	-2.485296E-05	5.393628E-06	4.575787E-07	1.442558E-05	1.575015E-05
-1.111702E-05	-5.436447E-06	-4.138942E-06	-9.667346E-06	-1.562421E-05	-7.038673E-06	-1.806319E-06	-5.811151E-06	-2.762324E-06	1.897832E-06	-3.270705E-05	-2.485296E-05	5.393628E-06	4.575787E-07	1.442558E-05	1.575015E-05
-1.086368E-05	-5.993533E-06	-4.627461E-06	-1.025026E-05	-1.485006E-05	-6.969479E-06	-4.284992E-06	-6.641776E-06	-1.494629E-06	9.507836E-07	-3.373319E-05	-2.55128E-05	7.561336E-06	1.298645E-06	1.359515E-05	1.514797E-05
-1.086368E-05	-5.993533E-06	-4.627461E-06	-1.025026E-05	-1.485006E-05	-6.969479E-06	-4.284992E-06	-6.641776E-06	-1.494629E-06	9.507836E-07	-3.373319E-05	-2.55128E-05	7.561336E-06	1.298645E-06	1.359515E-05	1.514797E-05
-1.017355E-05	-5.251536E-06	-4.244165E-06	-1.061027E-05	-1.451509E-05	-7.325987E-06	-5.131109E-06	-8.49386E-06	-6.191415E-07	6.85805E-07	-3.458643E-05	-2.331449E-05	8.259436E-06	3.141561E-06	1.237196E-05	1.440444E-05
-1.017355E-05	-5.251536E-06	-4.244165E-06	-1.061027E-05	-1.451509E-05	-7.325987E-06	-5.131109E-06	-8.49386E-06	-6.191415E-07	6.85805E-07	-3.458643E-05	-2.331449E-05	8.259436E-06	3.141561E-06	1.237196E-05	1.440444E-05
-9.614193E-06	-4.185176E-06	-3.663601E-06	-9.735145E-06	-1.491966E-05	-7.949689E-06	-4.559151E-06	-1.066083E-05	-1.923989E-06	1.482998E-06	-3.528418E-05	-2.093113E-05	6.981343E-06	5.068533E-06	1.206831E-05	1.359285E-05
-9.614193E-06	-4.185176E-06	-3.663601E-06	-9.735145E-06	-1.491966E-05	-7.949689E-06	-4.559151E-06	-1.066083E-05	-1.923989E-06	1.482998E-06	-3.528418E-05	-2.093113E-05	6.981343E-06	5.068533E-06	1.206831E-05	1.359285E-05
-9.993231E-06	-3.402371E-06	-4.018223E-06	-7.539302E-06	-1.621234E-05	-8.309122E-06	-4.107834E-06	-1.198917E-05	-2.507941E-06	3.706399E-06	-3.524846E-05	-2.063229E-05	6.064837E-06	5.729797E-06	1.323395E-05	1.234292E-05
-9.993231E-06	-3.402371E-06	-4.018223E-06	-7.539302E-06	-1.621234E-05	-8.309122E-06	-4.107834E-06	-1.198917E-05	-2.507941E-06	3.706399E-06	-3.524846E-05	-2.063229E-05	6.064837E-06	5.729797E-06	1.323395E-05	1.234292E-05
-1.131467E-05	-2.011275E-06	-4.668469E-06	-4.840162E-06	-1.813917E-05	-7.912504E-06	-3.882726E-06	-1.18534E-05	-1.383892E-06	4.95719E-06	-3.328441E-05	-2.09924E-05	6.76527E-06	5.368017E-06	1.529429E-05	1.183777E-05
-1.131467E-05	-2.011275E-06	-4.668469E-06	-4.840162E-06	-1.813917E-05	-7.912504E-06	-3.882726E-06	-1.18534E-05	-1.383892E-06	4.95719E-06	-3.328441E-05	-2.09924E-05	6.76527E-06	5.368017E-06	1.529429E-05	1.183777E-05
-1.291586E-05	-3.683264E-07	-4.445355E-06	-3.052014E-06	-1.959751E-05	-7.434532E-06	-3.112818E-06	-1.085978E-05	-1.211386E-07	5.190064E-06	-3.061552E-05	-2.040778E-05	8.006689E-06	5.508422E-06	1.675706E-05	1.301105E-05
-1.291586E-05	-3.683264E-07	-4.445355E-06	-3.052014E-06	-1.959751E-05	-7.434532E-06	-3.112818E-06	-1.085978E-05	-1.211386E-07	5.190064E-06	-3.061552E-05	-2.040778E-05	8.006689E-06	5.508422E-06	1.675706E-05	1.301105E-05
-1.420658E-05	-6.571464E-07	-3.506172E-06	-3.196481E-06	-1.951435E-05	-8.132569E-06	-2.049581E-06	-1.012802E-05	2.650399E-08	5.048213E-06	-3.041383E-05	-1.968749E-05	7.546114E-06	6.470377E-06	1.643393E-05	1.508021E-05
-1.420658E-05	-6.571464E-07	-3.506172E-06	-3.196481E-06	-1.951435E-05	-8.132569E-06	-2.049581E-06	-1.012802E-05	2.650399E-08	5.048213E-06	-3.041383E-05	-1.968749E-05	7.546114E-06	6.470377E-06	1.643393E-05	1.508021E-05
-1.477839E-05	-2.709963E-06	-2.62345E-06	-4.730208E-06	-1.837125E-05	-9.524394E-06	-1.66046E-06	-1.004905E-05	-2.062219E-07	5.013633E-06	-3.186295E-05	-1.993723E-05	5.986279E-06	7.611251E-06	1.506853E-05	1.582389E-05
-1.477839E-05	-2.709963E-06	-2.62345E-06	-4.730208E-06	-1.837125E-05	-9.524394E-06	-1.66046E-06	-1.004905E-05	-2.062219E-07	5.013633E-06	-3.186295E-05	-1.993723E-05	5.986279E-06	7.611251E-06	1.506853E-05	1.582389E-05
-1.441537E-05	-4.416533E-06	-2.463202E-06	-6.180306E-06	-1.718851E-05	-1.01545E-05	-2.152129E-06	-9.858811E-06	-2.933591E-07	4.514159E-06	-3.213194E-05	-2.002487E-05	5.665075E-06	7.97588E-06	1.384652E-05	1.477453E-05
-1.441537E-05	-4.416533E-06	-2.463202E-06	-6.180306E-06	-1.718851E-05	-1.01545E-05	-2.152129E-06	-9.858811E-06	-2.933591E-07	4.514159E-06	-3.213194E-05	-2.002487E-05	5.665075E-06	7.97588E-06	1.384652E-05	1.477453E-05
-1.326725E-05	-5.04123E-06	-3.264058E-06	-6.75492E-06	-1.613506E-05	-9.793732E-06	-2.414669E-06	-8.717612E-06	2.45923E-08	4.31084E-06	-3.119813E-05	-1.80306E-05	6.588133E-06	8.727807E-06	1.349786E-05	1.255618E-05
-1.326725E-05	-5.04123E-06	-3.264058E-06	-6.75492E-06	-1.613506E-05	-9.793732E-06	-2.414669E-06	-8.717612E-06	2.45923E-08	4.31084E-06	-3.119813E-05	-1.80306E-05	6.588133E-06	8.727807E-06	1.349786E-05	1.255618E-05
-1.201911E-05	-4.682656E-06	-4.360983E-06	-6.616339E-06	-1.580214E-05	-8.996998E-06	-1.608666E-06	-7.624386E-06	1.231725E-06	3.593809E-06	-3.12568E-05	-1.652994E-05	6.989202E-06	8.785034E-06	1.383296E-05	1.183966E-05
-1.201911E-05	-4.682656E-06	-4.360983E-06	-6.616339E-06	-1.580214E-05	-8.996998E-06	-1.608666E-06	-7.624386E-06	1.231725E-06	3.593809E-06	-3.12568E-05	-1.652994E-05	6.989202E-06	8.785034E-06	1.383296E-05	1.183966E-05
-1.126594E-05	-3.71875E-06	-4.773674E-06	-6.236566E-06	-1.656309E-05	-8.186632E-06	-5.52952E-07	-7.94522E-06	3.84208E-06	3.050518E-06	-3.220827E-05	-1.668608E-05	6.514702E-06	7.31327E-06	1.584105E-05	1.396432E-05
-1.126594E-05	-3.71875E-06	-4.773674E-06	-6.236566E-06	-1.656309E-05	-8.186632E-06	-5.52952E-07	-7.94522E-06	3.84208E-06	3.050518E-06	-3.220827E-05	-1.668608E-05	6.514702E-06	7.31327E-06	1.584105E-05	1.396432E-05
-1.071984E-05	-3.346345E-06	-4.396366E-06	-5.857985E-06	-1.682073E-05	-7.562484E-06	-6.873102E-07	-8.650176E-06	5.525746E-06	2.462316E-06	-3.123389E-05	-1.643816E-05	6.834231E-06	5.629835E-06	1.745865E-05	1.573919E-05
-1.071984E-05	-3.346345E-06	-4.396366E-06	-5.857985E-06	-1.682073E-05	-7.562484E-06	-6.873102E-07	-8.650176E-06	5.525746E-06	2.462316E-06	-3.123389E-05	-1.643816E-05	6.834231E-06	5.629835E-06	1.745865E-05	1.573919E-05
-1.012893E-05	-4.401934E-06	-4.116644E-06	-5.175802E-06	-1.571756E-05	-7.206841E-06	-1.537125E-06	-8.949763E-06	4.585606E-06	2.050589E-06	-3.03345E-05	-1.630319E-05	7.741038E-06	4.852527E-06	1.524683E-05	1.503261E-05
-1.012893E-05	-4.401934E-06	-4.116644E-06	-5.175802E-06	-1.571756E-05	-7.206841E-06	-1.537125E-06	-8.949763E-06	4.585606E-06	2.050589E-06	-3.03345E-05	-1.630319E-05	7.741038E-06	4.852527E-06	1.524683E-05	1.503261E-05
-9.99273E-06	-6.212704E-06	-4.455404E-06	-4.171298E-06	-1.465026E-05	-7.317073E-06	-1.546378E-06	-9.888859E-06	2.388267E-06	2.284278E-06	-2.975902E-05	-1.752488E-05	8.019139E-06	5.738479E-06	1.184127E-05	1.396893E-05
-9.99273E-06	-6.212704E-06	-4.455404E-06	-4.171298E-06	-1.465026E-05	-7.317073E-06	-1.546378E-06	-9.888859E-06	2.388267E-06	2.284278E-06	-2.975902E-05	-1.752488E-05	8.019139E-06	5.738479E-06	1.184127E-05	1.396893E-05
-1.056768E-05	-7.219538E-06	-4.57107E-06	-4.077614E-06	-1.446131E-05	-8.0487E-06	-1.603347E-06	-1.125522E-05	5.511977E-07	3.105482E-06	-2.997619E-05	-1.867377E-05	7.887153E-06	6.727768E-06	1.145262E-05	1.405131E-05
-1.056768E-05	-7.219538E-06	-4.57107E-06	-4.077614E-06	-1.446131E-05	-8.0487E-06	-1.603347E-06	-1.125522E-05	5.511977E-07	3.105482E-06	-2.997619E-05	-1.867377E-05	7.887153E-06	6.727768E-06	1.145262E-05	1.405131E-05
-1.137256E-05	-6.738268E-06	-4.205493E-06	-5.572883E-06	-1.479908E-05	-9.013715E-06	-3.191123E-06	-1.180842E-05	1.350797E-06	3.196153E-06	-2.981796E-05	-1.815832E-05	9.036936E-06	6.999497E-06	1.400935E-05	1.397863E-05
-1.137256E-05	-6.738268E-06	-4.205493E-06	-5.572883E-06	-1.479908E-05	-9.013715E-06	-3.191123E-06	-1.180842E-05	1.350797E-06	3.196153E-06	-2.981796E-05	-1.815832E-05	9.036936E-06	6.999497E-06	1.400935E-05	1.397863E-05
-1.183665E-05	-5.679029E-06	-4.557957E-06	-7.361081E-06	-1.53222E-05	-9.526662E-06	-5.296965E-06	-1.152958E-05	2.581116E-06	2.248298E-06	-3.02443E-05	-1.654635E-05	9.242632E-06	6.775684E-06	1.479792E-05	1.38911E-05
-1.183665E-05	-5.679029E-06	-4.557957E-06	-7.361081E-06	-1.53222E-05	-9.526662E-06	-5.296965E-06	-1.152958E-05	2.581116E-06	2.248298E-06	-3.02443E-05	-1.654635E-05	9.242632E-06	6.775684E-06	1.479792E-05	1.38911E-05
-1.224719E-05	-4.687446E-06	-5.030546E-06	-8.017546E-06	-1.580004E-05	-9.266817E-06	-6.443035E-06	-1.177004E-05	1.317832E-06	1.83794E-06	-2.977502E-05	-1.581082E-05	8.935167E-06	4.346505E-06	1.300409E-05	1.511434E-05
-1.224719E-05	-4.687446E-06	-5.030546E-06	-8.017546E-06	-1.580004E-05	-9.266817E-06	-6.443035E-06	-1.177004E-05	1.317832E-06	1.83794E-06	-2.977502E-05	-1.581082E-05	8.935167E-06	4.346505E-06	1.300409E-05	1.511434E-05
-1.30946E-05	-3.36468E-06	-3.961419E-06	-7.042753E-06	-1.625684E-05	-8.610077E-06	-6.700722E-06	-1.371465E-05	1.604216E-06	1.853473E-06	-2.976255E-05	-1.669002E-05	8.586827E-06	3.647373E-06	1.257663E-05	1.568631E-05
-1.30946E-05	-3.36468E-06	-3.961419E-06	-7.042753E-06	-1.625684E-05	-8.610077E-06	-6.700722E-06	-1.371465E-05	1.604216E-06	1.853473E-06	-2.976255E-05	-1.669002E-05	8.586827E-06	3.647373E-06	1.257663E-05	1.568631E-05
-1.328421E-05	-2.377973E-06	-2.634369E-06	-4.865095E-06	-1.668259E-05	-8.841876E-06	-6.887108E-06	-1.575036E-05	2.559794E-06	1.308861E-06	-3.212113E-05	-1.782045E-05	8.814886E-06	6.01515E-06	1.274729E-05	1.473679E-05
-1.328421E-05	-2.377973E-06	-2.634369E-06	-4.865095E-06	-1.668259E-05	-8.841876E-06	-6.887108E-06	-1.575036E-05	2.559794E-06	1.308861E-06	-3.212113E-05	-1.782045E-05	8.814886E-06	6.01515E-06	1.274729E-05	1.473679E-05
-1.205313E-05	-2.964575E-06	-2.455582E-06	-3.016415E-06	-1.656714E-05	-1.014731E-05	-6.826928E-06	-1.587887E-05	1.412489E-06	2.386521E-06	-3.309952E-05	-1.704988E-05	9.707101E-06	8.056817E-06	1.274909E-05	1.379561E-05
-1.205313E-05	-2.964575E-06	-2.455582E-06	-3.016415E-06	-1.656714E-05	-1.014731E-05	-6.826928E-06	-1.587887E-05	1.412489E-06	2.386521E-06	-3.309952E-05	-1.704988E-05	9.707101E-06	8.056817E-06	1.274909E-05	1.379561E-05
-1.094634E-05	-4.341061E-06	-2.33181E-06	-2.748788E-06	-1.586326E-05	-1.053513E-05	-5.813025E-06	-1.5345E-05	1.120373E-06	3.797493E-06	-3.214912E-05	-1.722201E-05	9.100801E-06	7.700995E-06	1.154279E-05	1.329462E-05
-1.094634E-05	-4.341061E-06	-2.33181E-06	-2.748788E-06	-1.586326E-05	-1.053513E-05	-5.813025E-06	-1.5345E-05	1.120373E-06	3.797493E-06	-3.214912E-05	-1.722201E-05	9.100801E-06	7.700995E-06	1.154279E-05	1.329462E-05
-1.083943E-05	-5.027048E-06	-2.445134E-06	-3.994623E-06	-1.550773E-05	-9.304353E-06	-4.521205E-06	-1.517816E-05	1.221708E-06	3.768497E-06	-3.088889E-05	-1.751791E-05	7.30075E-06	6.348291E-06	1.034341E-05	1.421357E-05
-1.083943E-05	-5.027048E-06	-2.445134E-06	-3.994623E-06	-1.550773E-05	-9.304353E-06	-4.521205E-06	-1.517816E-05	1.221708E-06	3.768497E-06	-3.088889E-05	-1.751791E-05	7.30075E-06	6.348291E-06	1.034341E-05	1.421357E-05
-1.086931E-05	-4.863301E-06	-3.994902E-06	-6.068533E-06	-1.611516E-05	-7.938637E-06	-3.878993E-06	-1.499626E-05	-4.280343E-07	3.935339E-06	-3.052495E-05	-1.821971E-05	5.745143E-06	5.343493E-06	1.052846E-05	1.602847E-05
-1.086931E-05	-4.863301E-06	-3.994902E-06	-6.068533E-06	-1.611516E-05	-7.938637E-06	-3.878993E-06	-1.499626E-05	-4.280343E-07	3.935339E-06	-3.052495E-05	-1.821971E-05	5.745143E-06	5.343493E-06	1.052846E-05	1.602847E-05
-1.074495E-05	-4.181122E-06	-5.959502E-06	-8.356425E-06	-1.721612E-05	-7.512963E-06	-3.605468E-06	-1.551695E-05	-1.502553E-06	3.375581E-06	-3.055185E-05	-1.84789E-05	5.118251E-06	5.435633E-06	1.043282E-05	1.794658E-05
-1.074495E-05	-4.181122E-06	-5.959502E-06	-8.356425E-06	-1.721612E-05	-7.512963E-06	-3.605468E-06	-1.551695E-05	-1.502553E-06	3.375581E-06	-3.055185E-05	-1.84789E-05	5.118251E-06	5.435633E-06	1.043282E-05	1.794658E-05
-1.096192E-05	-3.339738E-06	-6.496152E-06	-1.054117E-05	-1.784486E-05	-8.224518E-06	-3.35595E-06	-1.67866E-05	1.834655E-07	3.603723E-06	-3.146997E-05	-1.815135E-05	5.875962E-06	6.156053E-06	1.052875E-05	1.808952E-05
-1.096192E-05	-3.339738E-06	-6.496152E-06	-1.054117E-05	-1.784486E-05	-8.224518E-06	-3.35595E-06	-1.67866E-05	1.834655E-07	3.603723E-06	-3.146997E-05	-1.815135E-05	5.875962E-06	6.156053E-06	1.052875E-05	1.808952E-05
-1.131841E-05	-2.93316E-06	-5.40769E-06	-1.212674E-05	-1.741638E-05	-9.437643E-06	-3.346226E-06	-1.704832E-05	2.376511E-06	4.267514E-06	-3.181411E-05	-1.784784E-05	5.438487E-06	5.805517E-06	1.056403E-05	1.561088E-05
-1.131841E-05	-2.93316E-06	-5.40769E-06	-1.212674E-05	-1.741638E-05	-9.437643E-06	-3.346226E-06	-1.704832E-05	2.376511E-06	4.267514E-06	-3.181411E-05	-1.784784E-05	5.438487E-06	5.805517E-06	1.056403E-05	1.561088E-05
-1.081177E-05	-3.230232E-06	-4.031928E-06	-1.23173E-05	-1.633118E-05	-9.850005E-06	-3.804673E-06	-1.525855E-05	3.030057E-06	5.253883E-06	-3.133505E-05	-1.834239E-05	3.917969E-06	4.96643E-06	9.86005E-06	1.333432E-05
-1.081177E-05	-3.230232E-06	-4.031928E-06	-1.23173E-05	-1.633118E-05	-9.850005E-06	-3.804673E-06	-1.525855E-05	3.030057E-06	5.253883E-06	-3.133505E-05	-1.834239E-05	3.917969E-06	4.96643E-06	9.86005E-06	1.333432E-05
-9.432544E-06	-3.818614E-06	-3.346546E-06	-1.14776E-05	-1.563518E-05	-9.397431E-06	-4.486025E-06	-1.300612E-05	1.978348E-06	5.570359E-06	-3.174453E-05	-1.915827E-05	3.108348E-06	5.406552E-06	8.172125E-06	1.257236E-05
-9.432544E-06	-3.818614E-06	-3.346546E-06	-1.14776E-05	-1.563518E-05	-9.397431E-06	-4.486025E-06	-1.300612E-05	1.978348E-06	5.570359E-06	-3.174453E-05	-1.915827E-05	3.108348E-06	5.406552E-06	8.172125E-06	1.257236E-05
-8.425262E-06	-4.041638E-06	-3.217172E-06	-1.072151E-05	-1.596169E-05	-9.209077E-06	-4.826746E-06	-1.229189E-05	1.170288E-06	3.885546E-06	-3.271758E-05	-1.906216E-05	4.205769E-06	5.875409E-06	6.423719E-06	1.260268E-05
-8.425262E-06	-4.041638E-06	-3.217172E-06	-1.072151E-05	-1.596169E-05	-9.209077E-06	-4.826746E-06	-1.229189E-05	1.170288E-06	3.885546E-06	-3.271758E-05	-1.906216E-05	4.205769E-06	5.875409E-06	6.423719E-06	1.260268E-05
-8.495749E-06	-3.561509E-06	-3.304887E-06	-9.964396E-06	-1.688049E-05	-9.517041E-06	-4.701421E-06	-1.214707E-05	1.031252E-06	1.948462E-06	-3.292195E-05	-1.752405E-05	6.60646E-06	5.193954E-06	5.083196E-06	1.227912E-05
-8.495749E-06	-3.561509E-06	-3.304887E-06	-9.964396E-06	-1.688049E-05	-9.517041E-06	-4.701421E-06	-1.214707E-05	1.031252E-06	1.948462E-06	-3.292195E-05	-1.752405E-05	6.60646E-06	5.193954E-06	5.083196E-06	1.227912E-05
-9.267244E-06	-2.60616E-06	-3.180194E-06	-9.229568E-06	-1.729859E-05	-1.011313E-05	-4.430766E-06	-1.083813E-05	-6.850286E-07	8.129289E-07	-3.286291E-05	-1.556191E-05	7.572785E-06	4.392359E-06	5.304734E-06	1.206947E-05
-9.267244E-06	-2.60616E-06	-3.180194E-06	-9.229568E-06	-1.729859E-05	-1.011313E-05	-4.430766E-06	-1.083813E-05	-6.850286E-07	8.129289E-07	-3.286291E-05	-1.556191E-05	7.572785E-06	4.392359E-06	5.304734E-06	1.206947E-05
-1.002407E-05	-1.735547E-06	-2.543639E-06	-9.31036E-06	-1.663761E-05	-1.110745E-05	-4.13015E-06	-8.721778E-06	-3.04549E-06	1.089364E-07	-3.370749E-05	-1.530701E-05	7.266885E-06	4.138373E-06	7.168563E-06	1.249097E-05
-1.002407E-05	-1.735547E-06	-2.543639E-06	-9.31036E-06	-1.663761E-05	-1.110745E-05	-4.13015E-06	-8.721778E-06	-3.04549E-06	1.089364E-07	-3.370749E-05	-1.530701E-05	7.266885E-06	4.138373E-06	7.168563E-06	1.249097E-05
-1.038908E-05	-1.308718E-06	-1.995482E-06	-9.551515E-06	-1.561531E-05	-1.187106E-05	-3.583883E-06	-6.696253E-06	-2.452671E-06	-2.852131E-07	-3.492978E-05	-1.66931E-05	7.404729E-06	3.912258E-06	8.946381E-06	1.257074E-05
-1.038908E-05	-1.308718E-06	-1.995482E-06	-9.551515E-06	-1.561531E-05	-1.187106E-05	-3.583883E-06	-6.696253E-06	-2.452671E-06	-2.852131E-07	-3.492978E-05	-1.66931E-05	7.404729E-06	3.912258E-06	8.946381E-06	1.257074E-05
-1.05152E-05	-1.524453E-06	-2.297078E-06	-8.886846E-06	-1.546585E-05	-1.149298E-05	-2.988638E-06	-4.675537E-06	7.018496E-07	-1.665586E-07	-3.533054E-05	-1.784972E-05	8.653213E-06	3.807613E-06	9.501768E-06	1.184983E-05
-1.05152E-05	-1.524453E-06	-2.297078E-06	-8.886846E-06	-1.546585E-05	-1.149298E-05	-2.988638E-06	-4.675537E-06	7.018496E-07	-1.665586E-07	-3.533054E-05	-1.784972E-05	8.653213E-06	3.807613E-06	9.501768E-06	1.184983E-05
-1.086718E-05	-2.512638E-06	-3.104303E-06	-7.796266E-06	-1.647161E-05	-9.925367E-06	-2.893329E-06	-2.26017E-06	3.09488E-06	2.225438E-08	-3.507622E-05	-1.777894E-05	1.001537E-05	4.200629E-06	8.680749E-06	1.156301E-05
-1.086718E-05	-2.512638E-06	-3.104303E-06	-7.796266E-06	-1.647161E-05	-9.925367E-06	-2.893329E-06	-2.26017E-06	3.09488E-06	2.225438E-08	-3.507622E-05	-1.777894E-05	1.001537E-05	4.200629E-06	8.680749E-06	1.156301E-05
-1.183398E-05	-3.696054E-06	-3.128476E-06	-6.735153E-06	-1.75611E-05	-7.740741E-06	-2.722858E-06	-4.955299E-07	2.888382E-06	8.077201E-07	-3.491534E-05	-1.762996E-05	9.693733E-06	4.844685E-06	7.682636E-06	1.155533E-05
-1.183398E-05	-3.696054E-06	-3.128476E-06	-6.735153E-06	-1.75611E-05	-7.740741E-06	-2.722858E-06	-4.955299E-07	2.888382E-06	8.077201E-07	-3.491534E-05	-1.762996E-05	9.693733E-06	4.844685E-06	7.682636E-06	1.155533E-05
-1.31109E-05	-3.999331E-06	-1.996816E-06	-4.781331E-06	-1.774965E-05	-5.895001E-06	-1.946701E-06	-1.506345E-06	1.446065E-06	2.235927E-06	-3.433618E-05	-1.586141E-05	8.608989E-06	5.130458E-06	7.827724E-06	1.148501E-05
-1.31109E-05	-3.999331E-06	-1.996816E-06	-4.781331E-06	-1.774965E-05	-5.895001E-06	-1.946701E-06	-1.506345E-06	1.446065E-06	2.235927E-06	-3.433618E-05	-1.586141E-05	8.608989E-06	5.130458E-06	7.827724E-06	1.148501E-05
-1.368931E-05	-3.031078E-06	-1.3506E-06	-6.849891E-07	-1.757266E-05	-5.278806E-06	-1.944309E-06	-5.69747E-06	4.407126E-07	4.012584E-06	-3.375161E-05	-1.365264E-05	9.403984E-06	4.51328E-06	8.101588E-06	1.169514E-05
-1.368931E-05	-3.031078E-06	-1.3506E-06	-6.849891E-07	-1.757266E-05	-5.278806E-06	-1.944309E-06	-5.69747E-06	4.407126E-07	4.012584E-06	-3.375161E-05	-1.365264E-05	9.403984E-06	4.51328E-06	8.101588E-06	1.169514E-05
-1.301401E-05	-1.422225E-06	-2.305179E-06	4.677461E-06	-1.780919E-05	-5.475618E-06	-2.998176E-06	-1.02555E-05	-2.723004E-07	5.17697E-06	-3.297302E-05	-1.318994E-05	1.172636E-05	4.577812E-06	8.743741E-06	1.140207E-05
-1.301401E-05	-1.422225E-06	-2.305179E-06	4.677461E-06	-1.780919E-05	-5.475618E-06	-2.998176E-06	-1.02555E-05	-2.723004E-07	5.17697E-06	-3.297302E-05	-1.318994E-05	1.172636E-05	4.577812E-06	8.743741E-06	1.140207E-05
-1.17387E-05	-3.361039E-07	-3.873739E-06	7.601916E-06	-1.819608E-05	-5.437546E-06	-3.440031E-06	-1.226608E-05	-8.197758E-07	5.098389E-06	-3.203529E-05	-1.535866E-05	1.390132E-05	4.685898E-06	9.714945E-06	9.955999E-06
-1.17387E-05	-3.361039E-07	-3.873739E-06	7.601916E-06	-1.819608E-05	-5.437546E-06	-3.440031E-06	-1.226608E-05	-8.197758E-07	5.098389E-06	-3.203529E-05	-1.535866E-05	1.390132E-05	4.685898E-06	9.714945E-06	9.955999E-06
-1.107379E-05	-6.785872E-07	-5.019599E-06	4.869623E-06	-1.826056E-05	-5.400062E-06	-3.408591E-06	-1.297876E-05	-1.255762E-06	4.123292E-06	-3.149438E-05	-1.681837E-05	1.373547E-05	5.105285E-06	1.058023E-05	7.385616E-06
-1.107379E-05	-6.785872E-07	-5.019599E-06	4.869623E-06	-1.826056E-05	-5.400062E-06	-3.408591E-06	-1.297876E-05	-1.255762E-06	4.123292E-06	-3.149438E-05	-1.681837E-05	1.373547E-05	5.105285E-06	1.058023E-05	7.385616E-06
-1.153714E-05	-1.988867E-06	-5.555562E-06	-2.176116E-06	-1.753364E-05	-5.630192E-06	-3.877847E-06	-1.449651E-05	-1.755634E-06	2.668959E-06	-3.075472E-05	-1.633675E-05	1.172065E-05	7.050797E-06	1.195032E-05	6.554164E-06
-1.153714E-05	-1.988867E-06	-5.555562E-06	-2.176116E-06	-1.753364E-05	-5.630192E-06	-3.877847E-06	-1.449651E-05	-1.755634E-06	2.668959E-06	-3.075472E-05	-1.633675E-05	1.172065E-05	7.050797E-06	1.195032E-05	6.554164E-06
-1.247952E-05	-2.813269E-06	-5.608325E-06	-8.595105E-06	-1.579774E-05	-5.334128E-06	-4.239042E-06	-1.576575E-05	-1.922101E-06	2.85689E-06	-3.006036E-05	-1.498518E-05	9.906301E-06	9.074507E-06	1.313859E-05	8.408265E-06
-1.247952E-05	-2.813269E-06	-5.608325E-06	-8.595105E-06	-1.579774E-05	-5.334128E-06	-4.239042E-06	-1.576575E-05	-1.922101E-06	2.85689E-06	-3.006036E-05	-1.498518E-05	9.906301E-06	9.074507E-06	1.313859E-05	8.408265E-06
-1.327446E-05	-2.709699E-06	-5.125299E-06	-1.224409E-05	-1.441705E-05	-4.16616E-06	-3.71601E-06	-1.582936E-05	2.258762E-07	4.451963E-06	-3.031826E-05	-1.288928E-05	9.753018E-06	7.334069E-06	1.307423E-05	1.098909E-05
-1.327446E-05	-2.709699E-06	-5.125299E-06	-1.224409E-05	-1.441705E-05	-4.16616E-06	-3.71601E-06	-1.582936E-05	2.258762E-07	4.451963E-06	-3.031826E-05	-1.288928E-05	9.753018E-06	7.334069E-06	1.307423E-05	1.098909E-05
-1.386372E-05	-1.894494E-06	-3.776529E-06	-1.559201E-05	-1.485655E-05	-2.552213E-06	-2.10392E-06	-1.553217E-05	2.123585E-06	4.463442E-06	-3.154049E-05	-1.109021E-05	8.756346E-06	4.732727E-06	1.141772E-05	1.242935E-05
-1.386372E-05	-1.894494E-06	-3.776529E-06	-1.559201E-05	-1.485655E-05	-2.552213E-06	-2.10392E-06	-1.553217E-05	2.123585E-06	4.463442E-06	-3.154049E-05	-1.109021E-05	8.756346E-06	4.732727E-06	1.141772E-05	1.242935E-05
-1.370997E-05	-1.856481E-07	-2.239198E-06	-1.95633E-05	-1.609805E-05	-1.991711E-06	-3.681012E-07	-1.573614E-05	1.106405E-06	2.556621E-06	-3.182859E-05	-1.098675E-05	7.237016E-06	3.657042E-06	1.10252E-05	1.330504E-05
-1.370997E-05	-1.856481E-07	-2.239198E-06	-1.95633E-05	-1.609805E-05	-1.991711E-06	-3.681012E-07	-1.573614E-05	1.106405E-06	2.556621E-06	-3.182859E-05	-1.098675E-05	7.237016E-06	3.657042E-06	1.10252E-05	1.330504E-05
-1.279978E-05	1.446732E-06	-1.510783E-06	-2.208244E-05	-1.647827E-05	-3.340115E-06	-2.156614E-07	-1.635093E-05	-1.840605E-06	1.770566E-06	-3.112596E-05	-1.188313E-05	6.621942E-06	3.740579E-06	1.279704E-05	1.349591E-05
-1.279978E-05	1.446732E-06	-1.510783E-06	-2.208244E-05	-1.647827E-05	-3.340115E-06	-2.156614E-07	-1.635093E-05	-1.840605E-06	1.770566E-06	-3.112596E-05	-1.188313E-05	6.621942E-06	3.740579E-06	1.279704E-05	1.349591E-05
-1.24139E-05	1.468444E-06	-1.56518E-06	-2.265616E-05	-1.604904E-05	-4.45489E-06	-1.014969E-06	-1.682525E-05	-4.679473E-06	3.657079E-06	-3.044913E-05	-1.26572E-05	6.28928E-06	3.926354E-06	1.34094E-05	1.200304E-05
-1.24139E-05	1.468444E-06	-1.56518E-06	-2.265616E-05	-1.604904E-05	-4.45489E-06	-1.014969E-06	-1.682525E-05	-4.679473E-06	3.657079E-06	-3.044913E-05	-1.26572E-05	6.28928E-06	3.926354E-06	1.34094E-05	1.200304E-05
-1.264152E-05	2.140192E-07	-3.078439E-06	-2.171228E-05	-1.564102E-05	-3.949798E-06	-5.258357E-07	-1.747015E-05	-5.955525E-06	5.012954E-06	-3.013911E-05	-1.272338E-05	4.909512E-06	4.272004E-06	1.18512E-05	1.139769E-05
-1.264152E-05	2.140192E-07	-3.078439E-06	-2.171228E-05	-1.564102E-05	-3.949798E-06	-5.258357E-07	-1.747015E-05	-5.955525E-06	5.012954E-06	-3.013911E-05	-1.272338E-05	4.909512E-06	4.272004E-06	1.18512E-05	1.139769E-05
-1.247863E-05	-8.885249E-07	-6.205858E-06	-1.951696E-05	-1.579269E-05	-3.480692E-06	1.080448E-06	-1.748764E-05	-5.347907E-06	4.284537E-06	-3.038289E-05	-1.481016E-05	3.902736E-06	5.075718E-06	1.126516E-05	1.054741E-05
-1.247863E-05	-8.885249E-07	-6.205858E-06	-1.951696E-05	-1.579269E-05	-3.480692E-06	1.080448E-06	-1.748764E-05	-5.347907E-06	4.284537E-06	-3.038289E-05	-1.481016E-05	3.902736E-06	5.075718E-06	1.126516E-05	1.054741E-05
-1.211456E-05	-1.264898E-06	-8.316867E-06	-1.776917E-05	-1.652843E-05	-4.268685E-06	1.779444E-06	-1.431903E-05	-3.056045E-06	2.097614E-06	-2.928316E-05	-1.783329E-05	5.213576E-06	4.951438E-06	1.212189E-05	9.9788E-06
-1.211456E-05	-1.264898E-06	-8.316867E-06	-1.776917E-05	-1.652843E-05	-4.268685E-06	1.779444E-06	-1.431903E-05	-3.056045E-06	2.097614E-06	-2.928316E-05	-1.783329E-05	5.213576E-06	4.951438E-06	1.212189E-05	9.9788E-06
-1.224128E-05	-1.618304E-06	-7.302906E-06	-1.711409E-05	-1.721282E-05	-5.518312E-06	1.207224E-06	-8.578344E-06	-1.093711E-07	7.092052E-08	-3.015225E-05	-1.925676E-05	6.319829E-06	5.084346E-06	1.324067E-05	1.094254E-05
-1.224128E-05	-1.618304E-06	-7.302906E-06	-1.711409E-05	-1.721282E-05	-5.518312E-06	1.207224E-06	-8.578344E-06	-1.093711E-07	7.092052E-08	-3.015225E-05	-1.925676E-05	6.319829E-06	5.084346E-06	1.324067E-05	1.094254E-05
-1.272832E-05	-2.545933E-06	-4.447147E-06	-1.608735E-05	-1.724497E-05	-5.96632E-06	4.158316E-07	-4.227301E-06	2.615407E-06	-3.04731E-07	-3.244072E-05	-1.829753E-05	6.925649E-06	6.258807E-06	1.360582E-05	1.181438E-05
-1.272832E-05	-2.545933E-06	-4.447147E-06	-1.608735E-05	-1.724497E-05	-5.96632E-06	4.158316E-07	-4.227301E-06	2.615407E-06	-3.04731E-07	-3.244072E-05	-1.829753E-05	6.925649E-06	6.258807E-06	1.360582E-05	1.181438E-05
-1.295121E-05	-3.320663E-06	-2.621372E-06	-1.379559E-05	-1.690914E-05	-5.251073E-06	-1.955742E-07	-3.732092E-06	2.617659E-06	1.973155E-07	-3.26237E-05	-1.723496E-05	7.511921E-06	7.018491E-06	1.403476E-05	1.117803E-05
-1.295121E-05	-3.320663E-06	-2.621372E-06	-1.379559E-05	-1.690914E-05	-5.251073E-06	-1.955742E-07	-3.732092E-06	2.617659E-06	1.973155E-07	-3.26237E-05	-1.723496E-05	7.511921E-06	7.018491E-06	1.403476E-05	1.117803E-05
-1.2733E-05	-3.300572E-06	-2.942785E-06	-1.075419E-05	-1.693622E-05	-4.194331E-06	-8.339846E-07	-6.782751E-06	9.567032E-07	8.581317E-07	-3.19378E-05	-1.748195E-05	7.800905E-06	6.233873E-06	1.523571E-05	9.783381E-06
-1.2733E-05	-3.300572E-06	-2.942785E-06	-1.075419E-05	-1.693622E-05	-4.194331E-06	-8.339846E-07	-6.782751E-06	9.567032E-07	8.581317E-07	-3.19378E-05	-1.748195E-05	7.800905E-06	6.233873E-06	1.523571E-05	9.783381E-06
-1.230022E-05	-3.051136E-06	-4.066191E-06	-8.252105E-06	-1.737241E-05	-3.867717E-06	-1.239868E-06	-1.14163E-05	-1.40412E-07	5.329793E-07	-3.116912E-05	-1.810596E-05	8.451658E-06	6.610418E-06	1.641195E-05	8.512726E-06
-1.230022E-05	-3.051136E-06	-4.066191E-06	-8.252105E-06	-1.737241E-05	-3.867717E-06	-1.239868E-06	-1.14163E-05	-1.40412E-07	5.329793E-07	-3.116912E-05	-1.810596E-05	8.451658E-06	6.610418E-06	1.641195E-05	8.512726E-06
-1.15934E-05	-3.307306E-06	-4.442238E-06	-7.267185E-06	-1.740706E-05	-4.235515E-06	-5.180629E-07	-1.544313E-05	-7.014731E-08	-2.427277E-07	-3.154654E-05	-1.8171E-05	8.992427E-06	7.986172E-06	1.637528E-05	8.169371E-06
-1.15934E-05	-3.307306E-06	-4.442238E-06	-7.267185E-06	-1.740706E-05	-4.235515E-06	-5.180629E-07	-1.544313E-05	-7.014731E-08	-2.427277E-07	-3.154654E-05	-1.8171E-05	8.992427E-06	7.986172E-06	1.637528E-05	8.169371E-06
-1.080551E-05	-3.865233E-06	-3.850811E-06	-7.032253E-06	-1.686428E-05	-4.555227E-06	8.612373E-07	-1.789555E-05	1.062549E-06	1.474531E-07	-3.173748E-05	-1.806852E-05	8.478265E-06	8.565337E-06	1.511627E-05	9.129437E-06
-1.080551E-05	-3.865233E-06	-3.850811E-06	-7.032253E-06	-1.686428E-05	-4.555227E-06	8.612373E-07	-1.789555E-05	1.062549E-06	1.474531E-07	-3.173748E-05	-1.806852E-05	8.478265E-06	8.565337E-06	1.511627E-05	9.129437E-06
-1.054386E-05	-3.90792E-06	-3.158731E-06	-5.737763E-06	-1.639381E-05	-4.691572E-06	7.292232E-07	-1.92706E-05	2.202409E-06	1.078147E-06	-3.066993E-05	-1.832554E-05	8.291731E-06	8.748537E-06	1.37619E-05	1.03737E-05
-1.054386E-05	-3.90792E-06	-3.158731E-06	-5.737763E-06	-1.639381E-05	-4.691572E-06	7.292232E-07	-1.92706E-05	2.202409E-06	1.078147E-06	-3.066993E-05	-1.832554E-05	8.291731E-06	8.748537E-06	1.37619E-05	1.03737E-05
-1.076137E-05	-3.347353E-06	-3.14075E-06	-3.110724E-06	-1.570232E-05	-5.116331E-06	-1.60166E-06	-2.05465E-05	2.499889E-06	1.739919E-06	-2.932825E-05	-1.802675E-05	8.441752E-06	8.467586E-06	1.231782E-05	1.148377E-05
-1.076137E-05	-3.347353E-06	-3.14075E-06	-3.110724E-06	-1.570232E-05	-5.116331E-06	-1.60166E-06	-2.05465E-05	2.499889E-06	1.739919E-06	-2.932825E-05	-1.802675E-05	8.441752E-06	8.467586E-06	1.231782E-05	1.148377E-05
-1.097932E-05	-2.828272E-06	-3.398414E-06	-9.416525E-07	-1.42739E-05	-5.785635E-06	-4.384985E-06	-2.194646E-05	1.61879E-06	2.057119E-06	-2.956993E-05	-1.758021E-05	7.377809E-06	6.765115E-06	1.170858E-05	1.178004E-05
-1.097932E-05	-2.828272E-06	-3.398414E-06	-9.416525E-07	-1.42739E-05	-5.785635E-06	-4.384985E-06	-2.194646E-05	1.61879E-06	2.057119E-06	-2.956993E-05	-1.758021E-05	7.377809E-06	6.765115E-06	1.170858E-05	1.178004E-05
-1.112577E-05	-2.622856E-06	-2.965551E-06	-1.844101E-06	-1.290179E-05	-5.89325E-06	-5.602412E-06	-2.272158E-05	1.06035E-06	1.637103E-06	-3.0528E-05	-1.776902E-05	6.894432E-06	4.762575E-06	1.148221E-05	1.114806E-05
-1.112577E-05	-2.622856E-06	-2.965551E-06	-1.844101E-06	-1.290179E-05	-5.89325E-06	-5.602412E-06	-2.272158E-05	1.06035E-06	1.637103E-06	-3.0528E-05	-1.776902E-05	6.894432E-06	4.762575E-06	1.148221E-05	1.114806E-05
-1.119812E-05	-2.440013E-06	-2.17621E-06	-7.654299E-06	-1.256042E-05	-5.33586E-06	-4.832742E-06	-2.230687E-05	6.504072E-07	9.867674E-07	-3.07947E-05	-1.971625E-05	8.854397E-06	3.671395E-06	1.075779E-05	9.274705E-06
-1.119812E-05	-2.440013E-06	-2.17621E-06	-7.654299E-06	-1.256042E-05	-5.33586E-06	-4.832742E-06	-2.230687E-05	6.504072E-07	9.867674E-07	-3.07947E-05	-1.971625E-05	8.854397E-06	3.671395E-06	1.075779E-05	9.274705E-06
-1.113552E-05	-2.059217E-06	-2.368794E-06	-1.702333E-05	-1.305961E-05	-5.156076E-06	-3.117008E-06	-2.10426E-05	-9.55768E-07	7.555154E-07	-3.004129E-05	-2.21255E-05	1.078433E-05	4.157632E-06	9.046486E-06	6.978658E-06
-1.113552E-05	-2.059217E-06	-2.368794E-06	-1.702333E-05	-1.305961E-05	-5.156076E-06	-3.117008E-06	-2.10426E-05	-9.55768E-07	7.555154E-07	-3.004129E-05	-2.21255E-05	1.078433E-05	4.157632E-06	9.046486E-06	6.978658E-06
-1.108875E-05	-1.845444E-06	-3.772954E-06	-2.574847E-05	-1.340823E-05	-6.013128E-06	-1.439811E-06	-1.965292E-05	-1.82488E-06	4.102248E-07	-2.954392E-05	-2.427784E-05	9.948011E-06	5.572289E-06	8.053834E-06	5.869029E-06
-1.108875E-05	-1.845444E-06	-3.772954E-06	-2.574847E-05	-1.340823E-05	-6.013128E-06	-1.439811E-06	-1.965292E-05	-1.82488E-06	4.102248E-07	-2.954392E-05	-2.427784E-05	9.948011E-06	5.572289E-06	8.053834E-06	5.869029E-06
-1.095382E-05	-2.416356E-06	-5.339658E-06	-3.109216E-05	-1.353509E-05	-6.791041E-06	-3.537053E-07	-1.912429E-05	-7.255965E-07	7.205695E-08	-2.91828E-05	-2.448587E-05	7.504805E-06	6.132982E-06	8.677868E-06	7.597469E-06
-1.095382E-05	-2.416356E-06	-5.339658E-06	-3.109216E-05	-1.353509E-05	-6.791041E-06	-3.537053E-07	-1.912429E-05	-7.255965E-07	7.205695E-08	-2.91828E-05	-2.448587E-05	7.504805E-06	6.132982E-06	8.677868E-06	7.597469E-06
-1.074102E-05	-3.6566E-06	-6.167829E-06	-3.326093E-05	-1.421283E-05	-6.022694E-06	-2.764307E-07	-2.007221E-05	3.081219E-07	1.067068E-06	-2.91767E-05	-2.387678E-05	5.099279E-06	6.44654E-06	8.903309E-06	1.053225E-05
-1.074102E-05	-3.6566E-06	-6.167829E-06	-3.326093E-05	-1.421283E-05	-6.022694E-06	-2.764307E-07	-2.007221E-05	3.081219E-07	1.067068E-06	-2.91767E-05	-2.387678E-05	5.099279E-06	6.44654E-06	8.903309E-06	1.053225E-05
-1.138861E-05	-4.438888E-06	-6.365521E-06	-3.297266E-05	-1.495689E-05	-4.623741E-06	-1.162855E-06	-2.135505E-05	4.626736E-07	1.618311E-06	-2.886888E-05	-2.303103E-05	3.963859E-06	6.326037E-06	8.713065E-06	1.167797E-05
-1.138861E-05	-4.438888E-06	-6.365521E-06	-3.297266E-05	-1.495689E-05	-4.623741E-06	-1.162855E-06	-2.135505E-05	4.626736E-07	1.618311E-06	-2.886888E-05	-2.303103E-05	3.963859E-06	6.326037E-06	8.713065E-06	1.167797E-05
-1.276491E-05	-4.295845E-06	-6.250509E-06	-3.116055E-05	-1.498873E-05	-4.204426E-06	-2.232303E-06	-2.055811E-05	-2.151547E-07	1.530066E-06	-2.867767E-05	-2.249112E-05	5.582444E-06	6.436946E-06	1.015712E-05	1.054829E-05
-1.276491E-05	-4.295845E-06	-6.250509E-06	-3.116055E-05	-1.498873E-05	-4.204426E-06	-2.232303E-06	-2.055811E-05	-2.151547E-07	1.530066E-06	-2.867767E-05	-2.249112E-05	5.582444E-06	6.436946E-06	1.015712E-05	1.054829E-05
-1.307657E-05	-4.18326E-06	-5.686408E-06	-2.925904E-05	-1.486665E-05	-4.433438E-06	-2.614731E-06	-1.69114E-05	-1.688274E-06	1.022252E-06	-3.043671E-05	-2.467219E-05	8.311664E-06	6.637553E-06	1.186798E-05	8.724914E-06
-1.307657E-05	-4.18326E-06	-5.686408E-06	-2.925904E-05	-1.486665E-05	-4.433438E-06	-2.614731E-06	-1.69114E-05	-1.688274E-06	1.022252E-06	-3.043671E-05	-2.467219E-05	8.311664E-06	6.637553E-06	1.186798E-05	8.724914E-06
-1.219588E-05	-4.280728E-06	-5.034708E-06	-2.728342E-05	-1.4993E-05	-5.137894E-06	-2.184531E-06	-1.278915E-05	-2.409934E-06	1.13211E-07	-3.136362E-05	-2.702215E-05	1.020463E-05	5.896389E-06	1.310822E-05	8.134095E-06
-1.219588E-05	-4.280728E-06	-5.034708E-06	-2.728342E-05	-1.4993E-05	-5.137894E-06	-2.184531E-06	-1.278915E-05	-2.409934E-06	1.13211E-07	-3.136362E-05	-2.702215E-05	1.020463E-05	5.896389E-06	1.310822E-05	8.134095E-06
-1.170207E-05	-3.832563E-06	-4.932484E-06	-2.381227E-05	-1.498894E-05	-6.906979E-06	-1.164437E-06	-1.014962E-05	-1.610133E-06	1.868451E-06	-3.00242E-05	-2.70243E-05	9.304033E-06	6.959714E-06	1.394151E-05	8.714037E-06
-1.170207E-05	-3.832563E-06	-4.932484E-06	-2.381227E-05	-1.498894E-05	-6.906979E-06	-1.164437E-06	-1.014962E-05	-1.610133E-06	1.868451E-06	-3.00242E-05	-2.70243E-05	9.304033E-06	6.959714E-06	1.394151E-05	8.714037E-06
-1.239054E-05	-3.161478E-06	-5.242571E-06	-1.960829E-05	-1.461147E-05	-8.177027E-06	-1.765983E-07	-9.078261E-06	1.408055E-07	3.973702E-06	-2.791105E-05	-2.702358E-05	7.437719E-06	7.388797E-06	1.389978E-05	1.098447E-05
-1.239054E-05	-3.161478E-06	-5.242571E-06	-1.960829E-05	-1.461147E-05	-8.177027E-06	-1.765983E-07	-9.078261E-06	1.408055E-07	3.973702E-06	-2.791105E-05	-2.702358E-05	7.437719E-06	7.388797E-06	1.389978E-05	1.098447E-05
-1.342755E-05	-2.718186E-06	-5.447228E-06	-1.718956E-05	-1.402434E-05	-7.436248E-06	-2.765993E-07	-9.531122E-06	9.156963E-07	4.7445E-06	-2.778376E-05	-2.549249E-05	7.423867E-06	6.816933E-06	1.293572E-05	1.289522E-05
-1.342755E-05	-2.718186E-06	-5.447228E-06	-1.718956E-05	-1.402434E-05	-7.436248E-06	-2.765993E-07	-9.531122E-06	9.156963E-07	4.7445E-06	-2.778376E-05	-2.549249E-05	7.423867E-06	6.816933E-06	1.293572E-05	1.289522E-05
-1.32064E-05	-1.759734E-06	-5.287798E-06	-1.592522E-05	-1.363171E-05	-6.436489E-06	-1.591156E-06	-1.017611E-05	-4.812841E-07	5.390295E-06	-2.92603E-05	-2.237621E-05	9.090636E-06	6.72786E-06	1.293397E-05	1.109586E-05
-1.32064E-05	-1.759734E-06	-5.287798E-06	-1.592522E-05	-1.363171E-05	-6.436489E-06	-1.591156E-06	-1.017611E-05	-4.812841E-07	5.390295E-06	-2.92603E-05	-2.237621E-05	9.090636E-06	6.72786E-06	1.293397E-05	1.109586E-05
-1.211155E-05	1.296814E-07	-4.999087E-06	-1.367122E-05	-1.362527E-05	-6.347074E-06	-3.49824E-06	-1.01397E-05	-1.134805E-06	5.329757E-06	-3.075122E-05	-2.094648E-05	9.912602E-06	7.145727E-06	1.366782E-05	1.000239E-05
-1.211155E-05	1.296814E-07	-4.999087E-06	-1.367122E-05	-1.362527E-05	-6.347074E-06	-3.49824E-06	-1.01397E-05	-1.134805E-06	5.329757E-06	-3.075122E-05	-2.094648E-05	9.912602E-06	7.145727E-06	1.366782E-05	1.000239E-05
-1.20303E-05	1.779261E-06	-5.049873E-06	-1.06567E-05	-1.407992E-05	-6.200414E-06	-5.370853E-06	-1.041927E-05	-1.366669E-06	4.714181E-06	-3.106477E-05	-2.185877E-05	9.385056E-06	8.156424E-06	1.392554E-05	1.017198E-05
-1.20303E-05	1.779261E-06	-5.049873E-06	-1.06567E-05	-1.407992E-05	-6.200414E-06	-5.370853E-06	-1.041927E-05	-1.366669E-06	4.714181E-06	-3.106477E-05	-2.185877E-05	9.385056E-06	8.156424E-06	1.392554E-05	1.017198E-05
-1.302289E-05	1.522123E-06	-5.316009E-06	-7.796017E-06	-1.513398E-05	-5.948728E-06	-6.313005E-06	-1.072469E-05	-1.136819E-06	4.096823E-06	-3.071847E-05	-2.238628E-05	9.250818E-06	8.67173E-06	1.461439E-05	1.000263E-05
-1.302289E-05	1.522123E-06	-5.316009E-06	-7.796017E-06	-1.513398E-05	-5.948728E-06	-6.313005E-06	-1.072469E-05	-1.136819E-06	4.096823E-06	-3.071847E-05	-2.238628E-05	9.250818E-06	8.67173E-06	1.461439E-05	1.000263E-05
-1.343452E-05	-8.978593E-07	-4.963878E-06	-5.468319E-06	-1.633792E-05	-6.146879E-06	-5.970136E-06	-1.000628E-05	-1.161156E-06	3.431796E-06	-3.104298E-05	-2.267493E-05	9.618654E-06	9.881065E-06	1.390911E-05	1.05173E-05
-1.343452E-05	-8.978593E-07	-4.963878E-06	-5.468319E-06	-1.633792E-05	-6.146879E-06	-5.970136E-06	-1.000628E-05	-1.161156E-06	3.431796E-06	-3.104298E-05	-2.267493E-05	9.618654E-06	9.881065E-06	1.390911E-05	1.05173E-05
-1.259952E-05	-4.102107E-06	-3.667294E-06	-4.174032E-06	-1.687696E-05	-6.577189E-06	-4.800389E-06	-9.066312E-06	-1.802296E-06	3.369083E-06	-3.200354E-05	-2.27823E-05	9.947448E-06	9.917197E-06	1.380867E-05	1.094099E-05
-1.259952E-05	-4.102107E-06	-3.667294E-06	-4.174032E-06	-1.687696E-05	-6.577189E-06	-4.800389E-06	-9.066312E-06	-1.802296E-06	3.369083E-06	-3.200354E-05	-2.27823E-05	9.947448E-06	9.917197E-06	1.380867E-05	1.094099E-05
-1.18757E-05	-6.635541E-06	-2.285652E-06	-3.911493E-06	-1.651687E-05	-6.81042E-06	-3.159672E-06	-9.672025E-06	-1.049475E-06	3.458026E-06	-3.294053E-05	-2.196114E-05	1.076965E-05	7.751331E-06	1.393327E-05	9.625369E-06
-1.18757E-05	-6.635541E-06	-2.285652E-06	-3.911493E-06	-1.651687E-05	-6.81042E-06	-3.159672E-06	-9.672025E-06	-1.049475E-06	3.458026E-06	-3.294053E-05	-2.196114E-05	1.076965E-05	7.751331E-06	1.393327E-05	9.625369E-06
-1.251584E-05	-8.11026E-06	-1.675431E-06	-3.661995E-06	-1.55754E-05	-6.759756E-06	-1.590806E-06	-1.184961E-05	-2.325876E-08	3.586237E-06	-3.256804E-05	-2.178277E-05	1.267303E-05	4.512777E-06	1.341113E-05	8.174252E-06
-1.251584E-05	-8.11026E-06	-1.675431E-06	-3.661995E-06	-1.55754E-05	-6.759756E-06	-1.590806E-06	-1.184961E-05	-2.325876E-08	3.586237E-06	-3.256804E-05	-2.178277E-05	1.267303E-05	4.512777E-06	1.341113E-05	8.174252E-06
-1.384804E-05	-8.630167E-06	-1.782889E-06	-3.025949E-06	-1.460863E-05	-6.613831E-06	-8.028429E-07	-1.374258E-05	8.615218E-07	4.130191E-06	-3.081382E-05	-2.138721E-05	1.372544E-05	3.130913E-06	1.308668E-05	8.481714E-06
-1.384804E-05	-8.630167E-06	-1.782889E-06	-3.025949E-06	-1.460863E-05	-6.613831E-06	-8.028429E-07	-1.374258E-05	8.615218E-07	4.130191E-06	-3.081382E-05	-2.138721E-05	1.372544E-05	3.130913E-06	1.308668E-05	8.481714E-06
-1.424638E-05	-7.972845E-06	-2.043096E-06	-3.494629E-06	-1.421527E-05	-6.556206E-06	-6.627621E-07	-1.40972E-05	1.890408E-06	4.116177E-06	-3.071049E-05	-2.040997E-05	1.336096E-05	3.681014E-06	1.325049E-05	1.000201E-05
-1.424638E-05	-7.972845E-06	-2.043096E-06	-3.494629E-06	-1.421527E-05	-6.556206E-06	-6.627621E-07	-1.40972E-05	1.890408E-06	4.116177E-06	-3.071049E-05	-2.040997E-05	1.336096E-05	3.681014E-06	1.325049E-05	1.000201E-05
-1.336845E-05	-6.521784E-06	-1.931618E-06	-5.885195E-06	-1.448856E-05	-6.399164E-06	-7.887411E-07	-1.349528E-05	3.557406E-06	3.332094E-06	-3.267242E-05	-1.935067E-05	1.161012E-05	5.766889E-06	1.313836E-05	1.153909E-05
-1.336845E-05	-6.521784E-06	-1.931618E-06	-5.885195E-06	-1.448856E-05	-6.399164E-06	-7.887411E-07	-1.349528E-05	3.557406E-06	3.332094E-06	-3.267242E-05	-1.935067E-05	1.161012E-05	5.766889E-06	1.313836E-05	1.153909E-05
-1.237037E-05	-5.535226E-06	-1.462398E-06	-8.621054E-06	-1.495567E-05	-5.697779E-06	-1.191113E-06	-1.319152E-05	4.688549E-06	2.007434E-06	-3.353765E-05	-1.872989E-05	1.002726E-05	7.777271E-06	1.278022E-05	1.137881E-05
-1.237037E-05	-5.535226E-06	-1.462398E-06	-8.621054E-06	-1.495567E-05	-5.697779E-06	-1.191113E-06	-1.319152E-05	4.688549E-06	2.007434E-06	-3.353765E-05	-1.872989E-05	1.002726E-05	7.777271E-06	1.278022E-05	1.137881E-05
-1.171399E-05	-5.591125E-06	-1.262841E-06	-9.935608E-06	-1.522869E-05	-4.520495E-06	-1.474009E-06	-1.330086E-05	5.108327E-06	1.677E-06	-3.244084E-05	-1.841622E-05	9.783668E-06	7.875443E-06	1.273563E-05	1.127963E-05
-1.171399E-05	-5.591125E-06	-1.262841E-06	-9.935608E-06	-1.522869E-05	-4.520495E-06	-1.474009E-06	-1.330086E-05	5.108327E-06	1.677E-06	-3.244084E-05	-1.841622E-05	9.783668E-06	7.875443E-06	1.273563E-05	1.127963E-05
-1.087692E-05	-6.03097E-06	-1.824641E-06	-9.722661E-06	-1.525896E-05	-3.668515E-06	-1.477257E-06	-1.325148E-05	4.656095E-06	2.866047E-06	-3.148988E-05	-1.856094E-05	1.022708E-05	7.578698E-06	1.293328E-05	1.299024E-05
-1.087692E-05	-6.03097E-06	-1.824641E-06	-9.722661E-06	-1.525896E-05	-3.668515E-06	-1.477257E-06	-1.325148E-05	4.656095E-06	2.866047E-06	-3.148988E-05	-1.856094E-05	1.022708E-05	7.578698E-06	1.293328E-05	1.299024E-05
-9.765015E-06	-5.822028E-06	-2.936008E-06	-9.207773E-06	-1.523937E-05	-3.904638E-06	-1.891035E-06	-1.28457E-05	3.229133E-06	3.76896E-06	-3.062589E-05	-1.805689E-05	9.964717E-06	8.518002E-06	1.30806E-05	1.480122E-05
-9.765015E-06	-5.822028E-06	-2.936008E-06	-9.207773E-06	-1.523937E-05	-3.904638E-06	-1.891035E-06	-1.28457E-05	3.229133E-06	3.76896E-06	-3.062589E-05	-1.805689E-05	9.964717E-06	8.518002E-06	1.30806E-05	1.480122E-05
-9.026094E-06	-4.831486E-06	-3.944589E-06	-9.235709E-06	-1.554115E-05	-5.046536E-06	-2.426249E-06	-1.149653E-05	2.099995E-06	3.626233E-06	-2.933382E-05	-1.709967E-05	8.763232E-06	9.490785E-06	1.289755E-05	1.514486E-05
-9.026094E-06	-4.831486E-06	-3.944589E-06	-9.235709E-06	-1.554115E-05	-5.046536E-06	-2.426249E-06	-1.149653E-05	2.099995E-06	3.626233E-06	-2.933382E-05	-1.709967E-05	8.763232E-06	9.490785E-06	1.289755E-05	1.514486E-05
-9.170831E-06	-3.940121E-06	-4.287674E-06	-9.461806E-06	-1.624594E-05	-6.021824E-06	-2.333773E-06	-9.300015E-06	2.308972E-06	3.897739E-06	-2.917284E-05	-1.728934E-05	7.279126E-06	9.240895E-06	1.295183E-05	1.507367E-05
-9.170831E-06	-3.940121E-06	-4.287674E-06	-9.461806E-06	-1.624594E-05	-6.021824E-06	-2.333773E-06	-9.300015E-06	2.308972E-06	3.897739E-06	-2.917284E-05	-1.728934E-05	7.279126E-06	9.240895E-06	1.295183E-05	1.507367E-05
-9.684501E-06	-3.680297E-06	-3.903443E-06	-9.348017E-06	-1.687428E-05	-6.035817E-06	-2.468202E-06	-8.25501E-06	3.794107E-06	3.852964E-06	-2.966784E-05	-1.772388E-05	6.87949E-06	9.22899E-06	1.29609E-05	1.506942E-05
-9.684501E-06	-3.680297E-06	-3.903443E-06	-9.348017E-06	-1.687428E-05	-6.035817E-06	-2.468202E-06	-8.25501E-06	3.794107E-06	3.852964E-06	-2.966784E-05	-1.772388E-05	6.87949E-06	9.22899E-06	1.29609E-05	1.506942E-05
-9.830709E-06	-3.582434E-06	-3.24095E-06	-8.998545E-06	-1.703395E-05	-5.601055E-06	-3.117247E-06	-9.080783E-06	4.21633E-06	2.526383E-06	-2.974719E-05	-1.784939E-05	6.814056E-06	9.122915E-06	1.325799E-05	1.46191E-05
-9.830709E-06	-3.582434E-06	-3.24095E-06	-8.998545E-06	-1.703395E-05	-5.601055E-06	-3.117247E-06	-9.080783E-06	4.21633E-06	2.526383E-06	-2.974719E-05	-1.784939E-05	6.814056E-06	9.122915E-06	1.325799E-05	1.46191E-05
-9.684327E-06	-3.181057E-06	-2.799594E-06	-8.608702E-06	-1.667364E-05	-5.926172E-06	-2.930529E-06	-1.003852E-05	2.66886E-06	2.418012E-06	-2.976019E-05	-1.753263E-05	7.555216E-06	7.992579E-06	1.338678E-05	1.380743E-05
-9.684327E-06	-3.181057E-06	-2.799594E-06	-8.608702E-06	-1.667364E-05	-5.926172E-06	-2.930529E-06	-1.003852E-05	2.66886E-06	2.418012E-06	-2.976019E-05	-1.753263E-05	7.555216E-06	7.992579E-06	1.338678E-05	1.380743E-05
-9.707973E-06	-3.050079E-06	-2.693407E-06	-7.597391E-06	-1.570012E-05	-7.279224E-06	-1.768727E-06	-1.017391E-05	7.942677E-07	2.872769E-06	-3.053209E-05	-1.629431E-05	9.002552E-06	3.735115E-06	1.41964E-05	1.332942E-05
-9.707973E-06	-3.050079E-06	-2.693407E-06	-7.597391E-06	-1.570012E-05	-7.279224E-06	-1.768727E-06	-1.017391E-05	7.942677E-07	2.872769E-06	-3.053209E-05	-1.629431E-05	9.002552E-06	3.735115E-06	1.41964E-05	1.332942E-05
-1.009559E-05	-3.548306E-06	-2.492654E-06	-5.823243E-06	-1.449506E-05	-8.812869E-06	-8.374748E-07	-9.706209E-06	-1.084252E-06	2.213529E-06	-3.21963E-05	-1.553415E-05	8.341073E-06	8.62617E-07	1.460683E-05	1.290131E-05
-1.009559E-05	-3.548306E-06	-2.492654E-06	-5.823243E-06	-1.449506E-05	-8.812869E-06	-8.374748E-07	-9.706209E-06	-1.084252E-06	2.213529E-06	-3.21963E-05	-1.553415E-05	8.341073E-06	8.62617E-07	1.460683E-05	1.290131E-05
-1.063905E-05	-3.899016E-06	-1.760266E-06	-4.414585E-06	-1.391788E-05	-9.713143E-06	-6.869744E-07	-8.794692E-06	-1.569267E-06	2.462936E-06	-3.256428E-05	-1.442911E-05	6.563944E-06	2.371916E-06	1.397845E-05	1.325185E-05
-1.063905E-05	-3.899016E-06	-1.760266E-06	-4.414585E-06	-1.391788E-05	-9.713143E-06	-6.869744E-07	-8.794692E-06	-1.569267E-06	2.462936E-06	-3.256428E-05	-1.442911E-05	6.563944E-06	2.371916E-06	1.397845E-05	1.325185E-05
-1.122378E-05	-3.577887E-06	-7.890798E-07	-3.939367E-06	-1.44104E-05	-9.731453E-06	-8.164478E-07	-7.31767E-06	-8.821674E-07	3.716825E-06	-3.139089E-05	-1.32666E-05	5.790967E-06	4.227359E-06	1.259699E-05	1.35586E-05
-1.122378E-05	-3.577887E-06	-7.890798E-07	-3.939367E-06	-1.44104E-05	-9.731453E-06	-8.164478E-07	-7.31767E-06	-8.821674E-07	3.716825E-06	-3.139089E-05	-1.32666E-05	5.790967E-06	4.227359E-06	1.259699E-05	1.35586E-05
-1.193023E-05	-3.18526E-06	9.856448E-08	-3.335188E-06	-1.584252E-05	-8.675272E-06	-6.852067E-07	-4.476517E-06	-8.068274E-07	3.978506E-06	-3.221226E-05	-1.325513E-05	5.666802E-06	5.165802E-06	1.130591E-05	1.334635E-05
-1.193023E-05	-3.18526E-06	9.856448E-08	-3.335188E-06	-1.584252E-05	-8.675272E-06	-6.852067E-07	-4.476517E-06	-8.068274E-07	3.978506E-06	-3.221226E-05	-1.325513E-05	5.666802E-06	5.165802E-06	1.130591E-05	1.334635E-05
-1.212578E-05	-4.49632E-06	8.233482E-07	-6.931135E-07	-1.688627E-05	-6.688253E-06	-7.205039E-07	-7.47506E-07	-1.926035E-06	3.632673E-06	-3.145157E-05	-1.326379E-05	5.180459E-06	6.140912E-06	1.123504E-05	1.293836E-05
-1.212578E-05	-4.49632E-06	8.233482E-07	-6.931135E-07	-1.688627E-05	-6.688253E-06	-7.205039E-07	-7.47506E-07	-1.926035E-06	3.632673E-06	-3.145157E-05	-1.326379E-05	5.180459E-06	6.140912E-06	1.123504E-05	1.293836E-05
-1.128034E-05	-8.559179E-06	7.698682E-07	5.239275E-06	-1.617537E-05	-5.399411E-06	-1.28922E-06	2.37005E-06	-2.049092E-06	1.8356E-06	-2.902468E-05	-1.504406E-05	5.753599E-06	7.380575E-06	1.17683E-05	1.36974E-05
-1.128034E-05	-8.559179E-06	7.698682E-07	5.239275E-06	-1.617537E-05	-5.399411E-06	-1.28922E-06	2.37005E-06	-2.049092E-06	1.8356E-06	-2.902468E-05	-1.504406E-05	5.753599E-06	7.380575E-06	1.17683E-05	1.36974E-05
-1.056314E-05	-1.355221E-05	-3.161014E-07	1.252828E-05	-1.47143E-05	-6.249858E-06	-1.778925E-06	6.197366E-06	-2.198378E-06	-1.057204E-06	-2.844216E-05	-1.558512E-05	6.152512E-06	6.598139E-06	1.270091E-05	1.426888E-05
-1.056314E-05	-1.355221E-05	-3.161014E-07	1.252828E-05	-1.47143E-05	-6.249858E-06	-1.778925E-06	6.197366E-06	-2.198378E-06	-1.057204E-06	-2.844216E-05	-1.558512E-05	6.152512E-06	6.598139E-06	1.270091E-05	1.426888E-05
-1.124034E-05	-1.683448E-05	-1.793507E-06	1.57373E-05	-1.396006E-05	-8.243582E-06	-1.845614E-06	1.235966E-05	-3.509126E-06	3.617745E-07	-2.835241E-05	-1.342594E-05	7.141859E-06	4.669886E-06	1.273444E-05	1.444603E-05
