-1.143276E-05	-5.049578E-06	-4.971211E-06	-1.309477E-05	-1.646479E-05	-7.306854E-06	-4.189953E-06	-1.445286E-05	3.303352E-07	6.646853E-06	-2.915839E-05	-1.945083E-05	5.724192E-06	4.335009E-06	1.048845E-05	7.85722E-06
-1.143276E-05	-5.049578E-06	-4.971211E-06	-1.309477E-05	-1.646479E-05	-7.306854E-06	-4.189953E-06	-1.445286E-05	3.303352E-07	6.646853E-06	-2.915839E-05	-1.945083E-05	5.724192E-06	4.335009E-06	1.048845E-05	7.85722E-06
-1.103482E-05	-3.923657E-06	-4.072869E-06	-9.691345E-06	-1.559089E-05	-7.208785E-06	-3.405703E-06	-1.368015E-05	1.479363E-06	6.181896E-06	-2.727767E-05	-2.090607E-05	5.174608E-06	6.081716E-06	9.921541E-06	6.463369E-06
-1.103482E-05	-3.923657E-06	-4.072869E-06	-9.691345E-06	-1.559089E-05	-7.208785E-06	-3.405703E-06	-1.368015E-05	1.479363E-06	6.181896E-06	-2.727767E-05	-2.090607E-05	5.174608E-06	6.081716E-06	9.921541E-06	6.463369E-06
-1.074064E-05	-3.87839E-06	-2.513947E-06	-5.979572E-06	-1.541741E-05	-7.023781E-06	-1.530482E-06	-1.231601E-05	2.299598E-06	6.514404E-06	-2.634935E-05	-2.059523E-05	3.181744E-06	5.727369E-06	9.906435E-06	8.115505E-06
-1.074064E-05	-3.87839E-06	-2.513947E-06	-5.979572E-06	-1.541741E-05	-7.023781E-06	-1.530482E-06	-1.231601E-05	2.299598E-06	6.514404E-06	-2.634935E-05	-2.059523E-05	3.181744E-06	5.727369E-06	9.906435E-06	8.115505E-06
-1.045113E-05	-4.667E-06	-1.369399E-06	-7.476803E-06	-1.57009E-05	-7.21741E-06	1.834111E-07	-1.103115E-05	2.371306E-06	6.291717E-06	-2.614879E-05	-2.003388E-05	2.63666E-06	5.17276E-06	1.14312E-05	1.015146E-05
-1.045113E-05	-4.667E-06	-1.369399E-06	-7.476803E-06	-1.57009E-05	-7.21741E-06	1.834111E-07	-1.103115E-05	2.371306E-06	6.291717E-06	-2.614879E-05	-2.003388E-05	2.63666E-06	5.17276E-06	1.14312E-05	1.015146E-05
-9.696239E-06	-5.202692E-06	-1.306064E-06	-1.329325E-05	-1.546693E-05	-7.156936E-06	9.081523E-07	-1.056406E-05	3.497886E-07	5.446293E-06	-2.67986E-05	-1.936488E-05	3.207488E-06	4.287564E-06	1.381958E-05	1.142604E-05
-9.696239E-06	-5.202692E-06	-1.306064E-06	-1.329325E-05	-1.546693E-05	-7.156936E-06	9.081523E-07	-1.056406E-05	3.497886E-07	5.446293E-06	-2.67986E-05	-1.936488E-05	3.207488E-06	4.287564E-06	1.381958E-05	1.142604E-05
-8.66348E-06	-5.159918E-06	-1.347252E-06	-1.882995E-05	-1.463171E-05	-6.54819E-06	4.899224E-07	-1.129577E-05	-1.201245E-06	6.430431E-06	-2.816879E-05	-1.848093E-05	4.813782E-06	4.164904E-06	1.500475E-05	1.016338E-05
-8.66348E-06	-5.159918E-06	-1.347252E-06	-1.882995E-05	-1.463171E-05	-6.54819E-06	4.899224E-07	-1.129577E-05	-1.201245E-06	6.430431E-06	-2.816879E-05	-1.848093E-05	4.813782E-06	4.164904E-06	1.500475E-05	1.016338E-05
-8.575789E-06	-5.191465E-06	-8.209246E-07	-2.200396E-05	-1.413261E-05	-6.146655E-06	-8.685305E-07	-1.318263E-05	-1.523241E-06	7.682622E-06	-2.977374E-05	-1.784254E-05	5.004604E-06	5.609985E-06	1.520501E-05	8.31422E-06
-8.575789E-06	-5.191465E-06	-8.209246E-07	-2.200396E-05	-1.413261E-05	-6.146655E-06	-8.685305E-07	-1.318263E-05	-1.523241E-06	7.682622E-06	-2.977374E-05	-1.784254E-05	5.004604E-06	5.609985E-06	1.520501E-05	8.31422E-06
-9.997678E-06	-4.956535E-06	-3.417586E-07	-2.257474E-05	-1.419718E-05	-6.677751E-06	-2.58965E-06	-1.55161E-05	-1.928669E-06	6.437372E-06	-3.103868E-05	-1.780316E-05	4.823552E-06	6.233189E-06	1.516793E-05	8.323867E-06
-9.997678E-06	-4.956535E-06	-3.417586E-07	-2.257474E-05	-1.419718E-05	-6.677751E-06	-2.58965E-06	-1.55161E-05	-1.928669E-06	6.437372E-06	-3.103868E-05	-1.780316E-05	4.823552E-06	6.233189E-06	1.516793E-05	8.323867E-06
-1.153668E-05	-4.025702E-06	-3.790492E-07	-2.085389E-05	-1.493303E-05	-7.692975E-06	-3.967615E-06	-1.736995E-05	-3.837151E-06	4.658134E-06	-3.134506E-05	-1.820443E-05	6.320727E-06	6.43151E-06	1.653142E-05	9.395715E-06
-1.153668E-05	-4.025702E-06	-3.790492E-07	-2.085389E-05	-1.493303E-05	-7.692975E-06	-3.967615E-06	-1.736995E-05	-3.837151E-06	4.658134E-06	-3.134506E-05	-1.820443E-05	6.320727E-06	6.43151E-06	1.653142E-05	9.395715E-06
-1.167045E-05	-3.239038E-06	-9.607083E-07	-1.830554E-05	-1.613906E-05	-8.276092E-06	-5.013453E-06	-1.803395E-05	-4.572199E-06	3.395711E-06	-3.16473E-05	-1.770431E-05	7.955618E-06	5.936451E-06	1.772319E-05	9.556465E-06
-1.167045E-05	-3.239038E-06	-9.607083E-07	-1.830554E-05	-1.613906E-05	-8.276092E-06	-5.013453E-06	-1.803395E-05	-4.572199E-06	3.395711E-06	-3.16473E-05	-1.770431E-05	7.955618E-06	5.936451E-06	1.772319E-05	9.556465E-06
-1.093964E-05	-3.661201E-06	-2.143583E-06	-1.65149E-05	-1.64447E-05	-8.138242E-06	-6.521528E-06	-1.702074E-05	-3.0135E-06	3.594246E-06	-3.219258E-05	-1.60896E-05	7.563058E-06	5.926459E-06	1.757576E-05	9.449706E-06
-1.093964E-05	-3.661201E-06	-2.143583E-06	-1.65149E-05	-1.64447E-05	-8.138242E-06	-6.521528E-06	-1.702074E-05	-3.0135E-06	3.594246E-06	-3.219258E-05	-1.60896E-05	7.563058E-06	5.926459E-06	1.757576E-05	9.449706E-06
-1.075127E-05	-5.065632E-06	-3.545532E-06	-1.591664E-05	-1.528136E-05	-6.907458E-06	-8.392081E-06	-1.448985E-05	-1.537084E-06	3.842992E-06	-3.394457E-05	-1.499384E-05	6.347252E-06	5.838097E-06	1.695254E-05	9.536118E-06
-1.075127E-05	-5.065632E-06	-3.545532E-06	-1.591664E-05	-1.528136E-05	-6.907458E-06	-8.392081E-06	-1.448985E-05	-1.537084E-06	3.842992E-06	-3.394457E-05	-1.499384E-05	6.347252E-06	5.838097E-06	1.695254E-05	9.536118E-06
-1.119901E-05	-6.131073E-06	-4.567926E-06	-1.622302E-05	-1.393876E-05	-4.597226E-06	-9.217926E-06	-1.151406E-05	-9.495883E-07	3.233994E-06	-3.539256E-05	-1.623059E-05	6.201241E-06	5.419753E-06	1.54862E-05	8.700418E-06
-1.119901E-05	-6.131073E-06	-4.567926E-06	-1.622302E-05	-1.393876E-05	-4.597226E-06	-9.217926E-06	-1.151406E-05	-9.495883E-07	3.233994E-06	-3.539256E-05	-1.623059E-05	6.201241E-06	5.419753E-06	1.54862E-05	8.700418E-06
-1.107154E-05	-6.070338E-06	-5.232257E-06	-1.710052E-05	-1.388212E-05	-2.803401E-06	-8.157421E-06	-9.476424E-06	-1.961472E-06	2.208598E-06	-3.646979E-05	-1.881699E-05	6.243265E-06	4.106971E-06	1.397347E-05	8.263056E-06
-1.107154E-05	-6.070338E-06	-5.232257E-06	-1.710052E-05	-1.388212E-05	-2.803401E-06	-8.157421E-06	-9.476424E-06	-1.961472E-06	2.208598E-06	-3.646979E-05	-1.881699E-05	6.243265E-06	4.106971E-06	1.397347E-05	8.263056E-06
-1.023821E-05	-5.39101E-06	-5.662519E-06	-1.884028E-05	-1.552169E-05	-2.673334E-06	-5.986416E-06	-9.247758E-06	-3.362019E-06	2.408727E-06	-3.681295E-05	-2.001201E-05	5.262604E-06	3.205082E-06	1.400899E-05	8.885452E-06
-1.023821E-05	-5.39101E-06	-5.662519E-06	-1.884028E-05	-1.552169E-05	-2.673334E-06	-5.986416E-06	-9.247758E-06	-3.362019E-06	2.408727E-06	-3.681295E-05	-2.001201E-05	5.262604E-06	3.205082E-06	1.400899E-05	8.885452E-06
-1.015701E-05	-4.952263E-06	-5.586181E-06	-2.142333E-05	-1.773063E-05	-3.558823E-06	-4.158165E-06	-1.024451E-05	-4.211352E-06	3.418781E-06	-3.729345E-05	-1.90339E-05	3.931354E-06	3.948203E-06	1.458969E-05	1.066519E-05
-1.015701E-05	-4.952263E-06	-5.586181E-06	-2.142333E-05	-1.773063E-05	-3.558823E-06	-4.158165E-06	-1.024451E-05	-4.211352E-06	3.418781E-06	-3.729345E-05	-1.90339E-05	3.931354E-06	3.948203E-06	1.458969E-05	1.066519E-05
-1.110054E-05	-4.64746E-06	-5.027701E-06	-2.246624E-05	-1.820303E-05	-4.794732E-06	-3.331746E-06	-1.022982E-05	-4.653607E-06	3.393775E-06	-3.583931E-05	-1.773611E-05	3.442527E-06	5.55939E-06	1.344327E-05	1.233965E-05
-1.110054E-05	-4.64746E-06	-5.027701E-06	-2.246624E-05	-1.820303E-05	-4.794732E-06	-3.331746E-06	-1.022982E-05	-4.653607E-06	3.393775E-06	-3.583931E-05	-1.773611E-05	3.442527E-06	5.55939E-06	1.344327E-05	1.233965E-05
-1.196756E-05	-3.908649E-06	-4.418569E-06	-2.008193E-05	-1.629745E-05	-6.083979E-06	-3.338514E-06	-8.060611E-06	-5.710069E-06	2.143062E-06	-3.253617E-05	-1.805177E-05	4.456677E-06	6.016709E-06	1.008243E-05	1.388626E-05
-1.196756E-05	-3.908649E-06	-4.418569E-06	-2.008193E-05	-1.629745E-05	-6.083979E-06	-3.338514E-06	-8.060611E-06	-5.710069E-06	2.143062E-06	-3.253617E-05	-1.805177E-05	4.456677E-06	6.016709E-06	1.008243E-05	1.388626E-05
-1.228402E-05	-2.933834E-06	-4.082442E-06	-1.616089E-05	-1.422332E-05	-6.897262E-06	-3.919795E-06	-5.712698E-06	-5.883255E-06	1.093578E-06	-3.074054E-05	-1.941549E-05	6.585299E-06	4.811202E-06	6.4422E-06	1.50999E-05
-1.228402E-05	-2.933834E-06	-4.082442E-06	-1.616089E-05	-1.422332E-05	-6.897262E-06	-3.919795E-06	-5.712698E-06	-5.883255E-06	1.093578E-06	-3.074054E-05	-1.941549E-05	6.585299E-06	4.811202E-06	6.4422E-06	1.50999E-05
-1.237007E-05	-2.460936E-06	-4.227556E-06	-1.332272E-05	-1.351576E-05	-6.983824E-06	-4.772282E-06	-5.54047E-06	-5.09162E-06	5.934444E-07	-3.176722E-05	-1.943339E-05	8.627651E-06	3.66413E-06	4.631487E-06	1.472387E-05
-1.237007E-05	-2.460936E-06	-4.227556E-06	-1.332272E-05	-1.351576E-05	-6.983824E-06	-4.772282E-06	-5.54047E-06	-5.09162E-06	5.934444E-07	-3.176722E-05	-1.943339E-05	8.627651E-06	3.66413E-06	4.631487E-06	1.472387E-05
-1.241975E-05	-2.653132E-06	-4.856077E-06	-1.251759E-05	-1.37031E-05	-6.493488E-06	-5.674196E-06	-7.19891E-06	-5.027215E-06	1.476821E-07	-3.361697E-05	-1.941217E-05	9.201926E-06	3.437017E-06	5.964502E-06	1.395911E-05
-1.241975E-05	-2.653132E-06	-4.856077E-06	-1.251759E-05	-1.37031E-05	-6.493488E-06	-5.674196E-06	-7.19891E-06	-5.027215E-06	1.476821E-07	-3.361697E-05	-1.941217E-05	9.201926E-06	3.437017E-06	5.964502E-06	1.395911E-05
-1.200346E-05	-2.613584E-06	-5.389311E-06	-1.382487E-05	-1.435592E-05	-5.682935E-06	-6.55744E-06	-8.282775E-06	-4.779952E-06	7.78653E-07	-3.4362E-05	-2.04595E-05	8.691756E-06	3.917922E-06	8.486327E-06	1.459172E-05
-1.200346E-05	-2.613584E-06	-5.389311E-06	-1.382487E-05	-1.435592E-05	-5.682935E-06	-6.55744E-06	-8.282775E-06	-4.779952E-06	7.78653E-07	-3.4362E-05	-2.04595E-05	8.691756E-06	3.917922E-06	8.486327E-06	1.459172E-05
-1.086206E-05	-1.699336E-06	-4.808545E-06	-1.648414E-05	-1.508239E-05	-4.870401E-06	-6.776397E-06	-7.638959E-06	-3.037195E-06	7.09622E-07	-3.455965E-05	-2.082524E-05	7.985428E-06	4.115879E-06	9.783112E-06	1.492404E-05
-1.086206E-05	-1.699336E-06	-4.808545E-06	-1.648414E-05	-1.508239E-05	-4.870401E-06	-6.776397E-06	-7.638959E-06	-3.037195E-06	7.09622E-07	-3.455965E-05	-2.082524E-05	7.985428E-06	4.115879E-06	9.783112E-06	1.492404E-05
-9.805455E-06	-5.335179E-07	-2.931108E-06	-1.910051E-05	-1.538201E-05	-4.450909E-06	-5.59676E-06	-6.976044E-06	-2.779175E-06	7.237513E-07	-3.41025E-05	-2.031342E-05	7.722321E-06	4.004345E-06	9.851217E-06	1.459925E-05
-9.805455E-06	-5.335179E-07	-2.931108E-06	-1.910051E-05	-1.538201E-05	-4.450909E-06	-5.59676E-06	-6.976044E-06	-2.779175E-06	7.237513E-07	-3.41025E-05	-2.031342E-05	7.722321E-06	4.004345E-06	9.851217E-06	1.459925E-05
-1.009188E-05	-5.130504E-08	-1.39213E-06	-2.044595E-05	-1.556946E-05	-4.799552E-06	-3.839715E-06	-8.503728E-06	-3.543337E-06	1.396529E-06	-3.432856E-05	-1.823924E-05	7.419748E-06	4.56794E-06	9.742747E-06	1.460828E-05
-1.009188E-05	-5.130504E-08	-1.39213E-06	-2.044595E-05	-1.556946E-05	-4.799552E-06	-3.839715E-06	-8.503728E-06	-3.543337E-06	1.396529E-06	-3.432856E-05	-1.823924E-05	7.419748E-06	4.56794E-06	9.742747E-06	1.460828E-05
-1.186527E-05	-5.531704E-07	-1.722211E-06	-1.990265E-05	-1.598994E-05	-5.710992E-06	-3.063104E-06	-1.202816E-05	-2.905623E-06	2.332205E-06	-3.373759E-05	-1.63643E-05	7.696382E-06	6.188254E-06	9.345946E-06	1.456427E-05
-1.186527E-05	-5.531704E-07	-1.722211E-06	-1.990265E-05	-1.598994E-05	-5.710992E-06	-3.063104E-06	-1.202816E-05	-2.905623E-06	2.332205E-06	-3.373759E-05	-1.63643E-05	7.696382E-06	6.188254E-06	9.345946E-06	1.456427E-05
-1.381392E-05	-1.594978E-06	-3.287161E-06	-1.799566E-05	-1.627185E-05	-6.395644E-06	-3.523469E-06	-1.519564E-05	-1.404059E-06	3.291966E-06	-3.249648E-05	-1.574462E-05	8.048813E-06	7.163711E-06	8.514443E-06	1.416983E-05
-1.381392E-05	-1.594978E-06	-3.287161E-06	-1.799566E-05	-1.627185E-05	-6.395644E-06	-3.523469E-06	-1.519564E-05	-1.404059E-06	3.291966E-06	-3.249648E-05	-1.574462E-05	8.048813E-06	7.163711E-06	8.514443E-06	1.416983E-05
-1.468074E-05	-2.202478E-06	-4.317576E-06	-1.532516E-05	-1.588379E-05	-6.758929E-06	-4.080864E-06	-1.682592E-05	-4.069988E-07	2.823255E-06	-3.11543E-05	-1.623433E-05	8.045567E-06	7.264429E-06	8.451076E-06	1.489932E-05
-1.468074E-05	-2.202478E-06	-4.317576E-06	-1.532516E-05	-1.588379E-05	-6.758929E-06	-4.080864E-06	-1.682592E-05	-4.069988E-07	2.823255E-06	-3.11543E-05	-1.623433E-05	8.045567E-06	7.264429E-06	8.451076E-06	1.489932E-05
-1.419915E-05	-2.03029E-06	-4.043542E-06	-1.168456E-05	-1.462829E-05	-7.434808E-06	-3.704407E-06	-1.815743E-05	-3.063696E-07	2.316998E-06	-3.124671E-05	-1.687693E-05	8.646341E-06	8.283257E-06	9.315529E-06	1.680343E-05
-1.419915E-05	-2.03029E-06	-4.043542E-06	-1.168456E-05	-1.462829E-05	-7.434808E-06	-3.704407E-06	-1.815743E-05	-3.063696E-07	2.316998E-06	-3.124671E-05	-1.687693E-05	8.646341E-06	8.283257E-06	9.315529E-06	1.680343E-05
-1.309181E-05	-2.155331E-06	-3.512649E-06	-9.252938E-06	-1.353928E-05	-8.196839E-06	-2.9106E-06	-1.991332E-05	-6.626011E-08	2.234393E-06	-3.188877E-05	-1.605937E-05	8.2172E-06	9.808809E-06	1.106136E-05	1.674658E-05
-1.309181E-05	-2.155331E-06	-3.512649E-06	-9.252938E-06	-1.353928E-05	-8.196839E-06	-2.9106E-06	-1.991332E-05	-6.626011E-08	2.234393E-06	-3.188877E-05	-1.605937E-05	8.2172E-06	9.808809E-06	1.106136E-05	1.674658E-05
-1.280611E-05	-2.885051E-06	-3.714692E-06	-1.033949E-05	-1.372204E-05	-8.29161E-06	-3.098441E-06	-2.10268E-05	5.163853E-07	3.318938E-06	-3.122402E-05	-1.550117E-05	7.991606E-06	8.355399E-06	1.268991E-05	1.589363E-05
-1.280611E-05	-2.885051E-06	-3.714692E-06	-1.033949E-05	-1.372204E-05	-8.29161E-06	-3.098441E-06	-2.10268E-05	5.163853E-07	3.318938E-06	-3.122402E-05	-1.550117E-05	7.991606E-06	8.355399E-06	1.268991E-05	1.589363E-05
-1.379353E-05	-2.781849E-06	-4.224722E-06	-1.163695E-05	-1.425156E-05	-8.022562E-06	-4.351195E-06	-2.118926E-05	2.219141E-06	4.191491E-06	-2.977078E-05	-1.547112E-05	8.214723E-06	5.267219E-06	1.432349E-05	1.52826E-05
-1.379353E-05	-2.781849E-06	-4.224722E-06	-1.163695E-05	-1.425156E-05	-8.022562E-06	-4.351195E-06	-2.118926E-05	2.219141E-06	4.191491E-06	-2.977078E-05	-1.547112E-05	8.214723E-06	5.267219E-06	1.432349E-05	1.52826E-05
-1.458194E-05	-1.440028E-06	-4.641484E-06	-9.732351E-06	-1.416592E-05	-8.152306E-06	-5.098224E-06	-2.157044E-05	2.063409E-06	4.962621E-06	-2.975586E-05	-1.492905E-05	8.576651E-06	4.169241E-06	1.462584E-05	1.517303E-05
-1.458194E-05	-1.440028E-06	-4.641484E-06	-9.732351E-06	-1.416592E-05	-8.152306E-06	-5.098224E-06	-2.157044E-05	2.063409E-06	4.962621E-06	-2.975586E-05	-1.492905E-05	8.576651E-06	4.169241E-06	1.462584E-05	1.517303E-05
-1.450585E-05	-3.046285E-07	-4.905312E-06	-5.673341E-06	-1.413208E-05	-8.485988E-06	-4.819521E-06	-2.232506E-05	6.624246E-07	5.150611E-06	-3.105499E-05	-1.455423E-05	8.302366E-06	5.394269E-06	1.435252E-05	1.555175E-05
-1.450585E-05	-3.046285E-07	-4.905312E-06	-5.673341E-06	-1.413208E-05	-8.485988E-06	-4.819521E-06	-2.232506E-05	6.624246E-07	5.150611E-06	-3.105499E-05	-1.455423E-05	8.302366E-06	5.394269E-06	1.435252E-05	1.555175E-05
-1.460003E-05	-5.22066E-07	-4.587921E-06	-7.396921E-07	-1.462127E-05	-8.308112E-06	-4.893486E-06	-2.224914E-05	-5.133244E-07	5.498703E-06	-3.180498E-05	-1.428644E-05	7.58446E-06	6.12838E-06	1.257451E-05	1.558663E-05
-1.460003E-05	-5.22066E-07	-4.587921E-06	-7.396921E-07	-1.462127E-05	-8.308112E-06	-4.893486E-06	-2.224914E-05	-5.133244E-07	5.498703E-06	-3.180498E-05	-1.428644E-05	7.58446E-06	6.12838E-06	1.257451E-05	1.558663E-05
-1.456901E-05	-1.552175E-06	-3.538101E-06	4.044504E-06	-1.50425E-05	-7.578909E-06	-5.771729E-06	-2.085834E-05	-6.610877E-07	6.590392E-06	-3.2501E-05	-1.491264E-05	6.165282E-06	5.988448E-06	1.02119E-05	1.482014E-05
-1.456901E-05	-1.552175E-06	-3.538101E-06	4.044504E-06	-1.50425E-05	-7.578909E-06	-5.771729E-06	-2.085834E-05	-6.610877E-07	6.590392E-06	-3.2501E-05	-1.491264E-05	6.165282E-06	5.988448E-06	1.02119E-05	1.482014E-05
-1.354966E-05	-2.201867E-06	-2.645636E-06	6.462377E-06	-1.503599E-05	-6.864673E-06	-6.42373E-06	-1.883027E-05	-2.713034E-07	5.870615E-06	-3.29244E-05	-1.575325E-05	4.9171E-06	5.880174E-06	1.057458E-05	1.323786E-05
-1.354966E-05	-2.201867E-06	-2.645636E-06	6.462377E-06	-1.503599E-05	-6.864673E-06	-6.42373E-06	-1.883027E-05	-2.713034E-07	5.870615E-06	-3.29244E-05	-1.575325E-05	4.9171E-06	5.880174E-06	1.057458E-05	1.323786E-05
-1.243882E-05	-2.360234E-06	-3.115642E-06	5.137722E-06	-1.511625E-05	-6.660461E-06	-6.229741E-06	-1.70066E-05	1.650453E-07	3.751236E-06	-3.343267E-05	-1.60592E-05	5.089947E-06	5.957201E-06	1.188809E-05	1.222936E-05
-1.243882E-05	-2.360234E-06	-3.115642E-06	5.137722E-06	-1.511625E-05	-6.660461E-06	-6.229741E-06	-1.70066E-05	1.650453E-07	3.751236E-06	-3.343267E-05	-1.60592E-05	5.089947E-06	5.957201E-06	1.188809E-05	1.222936E-05
-1.182257E-05	-2.811656E-06	-4.574829E-06	1.402601E-06	-1.553836E-05	-7.202698E-06	-5.58173E-06	-1.57885E-05	1.909938E-06	2.284304E-06	-3.383871E-05	-1.530998E-05	6.050905E-06	5.971412E-06	1.150963E-05	1.275229E-05
-1.182257E-05	-2.811656E-06	-4.574829E-06	1.402601E-06	-1.553836E-05	-7.202698E-06	-5.58173E-06	-1.57885E-05	1.909938E-06	2.284304E-06	-3.383871E-05	-1.530998E-05	6.050905E-06	5.971412E-06	1.150963E-05	1.275229E-05
-1.127673E-05	-3.601461E-06	-5.354483E-06	-2.927336E-06	-1.586376E-05	-8.307352E-06	-5.040693E-06	-1.531112E-05	3.023869E-06	2.632265E-06	-3.397089E-05	-1.495166E-05	6.248863E-06	6.017129E-06	9.567568E-06	1.347008E-05
-1.127673E-05	-3.601461E-06	-5.354483E-06	-2.927336E-06	-1.586376E-05	-8.307352E-06	-5.040693E-06	-1.531112E-05	3.023869E-06	2.632265E-06	-3.397089E-05	-1.495166E-05	6.248863E-06	6.017129E-06	9.567568E-06	1.347008E-05
-1.107592E-05	-3.51159E-06	-4.900761E-06	-8.262626E-06	-1.58266E-05	-9.362505E-06	-4.403494E-06	-1.569794E-05	1.820405E-06	3.202502E-06	-3.394008E-05	-1.55339E-05	5.54797E-06	6.080033E-06	8.820202E-06	1.29362E-05
-1.107592E-05	-3.51159E-06	-4.900761E-06	-8.262626E-06	-1.58266E-05	-9.362505E-06	-4.403494E-06	-1.569794E-05	1.820405E-06	3.202502E-06	-3.394008E-05	-1.55339E-05	5.54797E-06	6.080033E-06	8.820202E-06	1.29362E-05
-1.119711E-05	-2.278337E-06	-4.170089E-06	-1.388707E-05	-1.569457E-05	-9.834512E-06	-3.641404E-06	-1.629703E-05	2.282923E-07	3.074945E-06	-3.372453E-05	-1.653918E-05	5.100647E-06	6.411837E-06	1.020231E-05	1.309465E-05
-1.119711E-05	-2.278337E-06	-4.170089E-06	-1.388707E-05	-1.569457E-05	-9.834512E-06	-3.641404E-06	-1.629703E-05	2.282923E-07	3.074945E-06	-3.372453E-05	-1.653918E-05	5.100647E-06	6.411837E-06	1.020231E-05	1.309465E-05
-1.091351E-05	-1.547609E-06	-3.786618E-06	-1.696629E-05	-1.586792E-05	-9.956114E-06	-3.493502E-06	-1.607107E-05	-6.650269E-07	1.892988E-06	-3.387776E-05	-1.671369E-05	4.581058E-06	7.849333E-06	1.216009E-05	1.430417E-05
-1.091351E-05	-1.547609E-06	-3.786618E-06	-1.696629E-05	-1.586792E-05	-9.956114E-06	-3.493502E-06	-1.607107E-05	-6.650269E-07	1.892988E-06	-3.387776E-05	-1.671369E-05	4.581058E-06	7.849333E-06	1.216009E-05	1.430417E-05
-1.061786E-05	-2.39105E-06	-2.918756E-06	-1.768535E-05	-1.629622E-05	-1.071616E-05	-4.04497E-06	-1.541856E-05	-2.309659E-06	1.564021E-06	-3.393637E-05	-1.6743E-05	3.660876E-06	8.973924E-06	1.187994E-05	1.502653E-05
-1.061786E-05	-2.39105E-06	-2.918756E-06	-1.768535E-05	-1.629622E-05	-1.071616E-05	-4.04497E-06	-1.541856E-05	-2.309659E-06	1.564021E-06	-3.393637E-05	-1.6743E-05	3.660876E-06	8.973924E-06	1.187994E-05	1.502653E-05
-1.102924E-05	-4.091362E-06	-1.622853E-06	-1.808443E-05	-1.65558E-05	-1.197199E-05	-4.707508E-06	-1.529388E-05	-3.471449E-06	2.433468E-06	-3.366089E-05	-1.812216E-05	2.743441E-06	8.775938E-06	1.044005E-05	1.421742E-05
-1.102924E-05	-4.091362E-06	-1.622853E-06	-1.808443E-05	-1.65558E-05	-1.197199E-05	-4.707508E-06	-1.529388E-05	-3.471449E-06	2.433468E-06	-3.366089E-05	-1.812216E-05	2.743441E-06	8.775938E-06	1.044005E-05	1.421742E-05
-1.160216E-05	-5.305237E-06	-1.78607E-06	-1.796774E-05	-1.636596E-05	-1.19687E-05	-5.198732E-06	-1.538412E-05	-2.388285E-06	3.677992E-06	-3.348786E-05	-1.939021E-05	4.203675E-06	7.817591E-06	1.024945E-05	1.33792E-05
-1.160216E-05	-5.305237E-06	-1.78607E-06	-1.796774E-05	-1.636596E-05	-1.19687E-05	-5.198732E-06	-1.538412E-05	-2.388285E-06	3.677992E-06	-3.348786E-05	-1.939021E-05	4.203675E-06	7.817591E-06	1.024945E-05	1.33792E-05
-1.156602E-05	-5.425983E-06	-2.859789E-06	-1.703601E-05	-1.573829E-05	-1.057922E-05	-5.259338E-06	-1.485731E-05	-3.876613E-07	4.68269E-06	-3.376939E-05	-2.051466E-05	7.301584E-06	7.668351E-06	1.120182E-05	1.313498E-05
-1.156602E-05	-5.425983E-06	-2.859789E-06	-1.703601E-05	-1.573829E-05	-1.057922E-05	-5.259338E-06	-1.485731E-05	-3.876613E-07	4.68269E-06	-3.376939E-05	-2.051466E-05	7.301584E-06	7.668351E-06	1.120182E-05	1.313498E-05
-1.071941E-05	-4.841841E-06	-2.427234E-06	-1.61557E-05	-1.513873E-05	-9.503874E-06	-4.988599E-06	-1.382121E-05	1.233719E-06	4.189941E-06	-3.379308E-05	-2.24712E-05	9.305197E-06	7.229308E-06	1.07635E-05	1.142153E-05
-1.071941E-05	-4.841841E-06	-2.427234E-06	-1.61557E-05	-1.513873E-05	-9.503874E-06	-4.988599E-06	-1.382121E-05	1.233719E-06	4.189941E-06	-3.379308E-05	-2.24712E-05	9.305197E-06	7.229308E-06	1.07635E-05	1.142153E-05
-9.21504E-06	-4.229989E-06	-9.886888E-07	-1.526062E-05	-1.527256E-05	-9.068562E-06	-5.234303E-06	-1.317545E-05	2.24212E-06	2.328655E-06	-3.328006E-05	-2.329059E-05	9.477787E-06	6.451851E-06	8.592648E-06	9.037961E-06
-9.21504E-06	-4.229989E-06	-9.886888E-07	-1.526062E-05	-1.527256E-05	-9.068562E-06	-5.234303E-06	-1.317545E-05	2.24212E-06	2.328655E-06	-3.328006E-05	-2.329059E-05	9.477787E-06	6.451851E-06	8.592648E-06	9.037961E-06
-7.887294E-06	-4.40553E-06	-2.30301E-07	-1.343682E-05	-1.595997E-05	-8.553356E-06	-5.733559E-06	-1.252113E-05	1.173718E-06	1.494758E-06	-3.241756E-05	-2.237816E-05	9.230026E-06	5.024779E-06	6.838213E-06	8.438918E-06
-7.887294E-06	-4.40553E-06	-2.30301E-07	-1.343682E-05	-1.595997E-05	-8.553356E-06	-5.733559E-06	-1.252113E-05	1.173718E-06	1.494758E-06	-3.241756E-05	-2.237816E-05	9.230026E-06	5.024779E-06	6.838213E-06	8.438918E-06
-7.700482E-06	-5.501131E-06	-5.112063E-07	-1.074626E-05	-1.630723E-05	-7.882977E-06	-4.953146E-06	-1.043547E-05	3.676288E-07	2.73684E-06	-3.125046E-05	-2.202518E-05	8.990262E-06	4.301975E-06	7.861715E-06	8.836896E-06
-7.700482E-06	-5.501131E-06	-5.112063E-07	-1.074626E-05	-1.630723E-05	-7.882977E-06	-4.953146E-06	-1.043547E-05	3.676288E-07	2.73684E-06	-3.125046E-05	-2.202518E-05	8.990262E-06	4.301975E-06	7.861715E-06	8.836896E-06
-8.468881E-06	-5.975752E-06	-2.119595E-06	-8.779433E-06	-1.62581E-05	-7.377407E-06	-2.844689E-06	-7.593855E-06	5.89083E-07	3.493354E-06	-2.988713E-05	-2.15227E-05	9.704717E-06	4.050601E-06	9.259642E-06	8.51134E-06
-8.468881E-06	-5.975752E-06	-2.119595E-06	-8.779433E-06	-1.62581E-05	-7.377407E-06	-2.844689E-06	-7.593855E-06	5.89083E-07	3.493354E-06	-2.988713E-05	-2.15227E-05	9.704717E-06	4.050601E-06	9.259642E-06	8.51134E-06
-9.454583E-06	-4.952951E-06	-4.437349E-06	-8.668785E-06	-1.62701E-05	-7.138883E-06	-1.198306E-06	-6.058663E-06	-1.312393E-06	2.154747E-06	-3.021517E-05	-2.073787E-05	1.029082E-05	3.682618E-06	9.314346E-06	7.770172E-06
-9.454583E-06	-4.952951E-06	-4.437349E-06	-8.668785E-06	-1.62701E-05	-7.138883E-06	-1.198306E-06	-6.058663E-06	-1.312393E-06	2.154747E-06	-3.021517E-05	-2.073787E-05	1.029082E-05	3.682618E-06	9.314346E-06	7.770172E-06
-1.040718E-05	-3.807791E-06	-5.670951E-06	-9.567597E-06	-1.630311E-05	-6.980758E-06	-1.244904E-06	-6.309607E-06	-3.082344E-06	6.39145E-07	-3.06783E-05	-1.978754E-05	1.08178E-05	3.69348E-06	1.072059E-05	9.393358E-06
-1.040718E-05	-3.807791E-06	-5.670951E-06	-9.567597E-06	-1.630311E-05	-6.980758E-06	-1.244904E-06	-6.309607E-06	-3.082344E-06	6.39145E-07	-3.06783E-05	-1.978754E-05	1.08178E-05	3.69348E-06	1.072059E-05	9.393358E-06
-1.120207E-05	-3.289626E-06	-5.773564E-06	-9.681663E-06	-1.64689E-05	-6.761984E-06	-2.289931E-06	-6.625703E-06	-2.253857E-06	9.692884E-07	-3.029516E-05	-2.025116E-05	1.242488E-05	4.250644E-06	1.221955E-05	1.304163E-05
-1.120207E-05	-3.289626E-06	-5.773564E-06	-9.681663E-06	-1.64689E-05	-6.761984E-06	-2.289931E-06	-6.625703E-06	-2.253857E-06	9.692884E-07	-3.029516E-05	-2.025116E-05	1.242488E-05	4.250644E-06	1.221955E-05	1.304163E-05
-1.197603E-05	-2.933811E-06	-5.949086E-06	-8.406844E-06	-1.713807E-05	-6.413906E-06	-2.772117E-06	-5.121942E-06	-2.118485E-06	2.171077E-06	-2.989901E-05	-2.008494E-05	1.272708E-05	5.314469E-06	1.076199E-05	1.234011E-05
-1.197603E-05	-2.933811E-06	-5.949086E-06	-8.406844E-06	-1.713807E-05	-6.413906E-06	-2.772117E-06	-5.121942E-06	-2.118485E-06	2.171077E-06	-2.989901E-05	-2.008494E-05	1.272708E-05	5.314469E-06	1.076199E-05	1.234011E-05
-1.30721E-05	-3.331403E-06	-5.707759E-06	-7.94586E-06	-1.782005E-05	-5.928473E-06	-1.737093E-06	-2.784431E-06	-3.035675E-06	1.100059E-06	-2.904352E-05	-1.802956E-05	1.061247E-05	4.032019E-06	8.178516E-06	9.48253E-06
-1.30721E-05	-3.331403E-06	-5.707759E-06	-7.94586E-06	-1.782005E-05	-5.928473E-06	-1.737093E-06	-2.784431E-06	-3.035675E-06	1.100059E-06	-2.904352E-05	-1.802956E-05	1.061247E-05	4.032019E-06	8.178516E-06	9.48253E-06
-1.423708E-05	-4.674821E-06	-4.150803E-06	-9.328313E-06	-1.7691E-05	-5.294959E-06	-8.498713E-08	-1.575587E-06	-3.498534E-06	-3.13082E-07	-2.907917E-05	-1.668923E-05	9.836434E-06	4.312629E-06	7.699658E-06	8.702154E-06
-1.423708E-05	-4.674821E-06	-4.150803E-06	-9.328313E-06	-1.7691E-05	-5.294959E-06	-8.498713E-08	-1.575587E-06	-3.498534E-06	-3.13082E-07	-2.907917E-05	-1.668923E-05	9.836434E-06	4.312629E-06	7.699658E-06	8.702154E-06
-1.495466E-05	-5.482456E-06	-2.039523E-06	-9.615226E-06	-1.70735E-05	-4.530496E-06	-1.555013E-09	-1.449422E-06	-2.534312E-06	-5.093132E-07	-2.900663E-05	-1.617394E-05	9.998204E-06	6.488918E-06	9.347932E-06	8.88441E-06
-1.495466E-05	-5.482456E-06	-2.039523E-06	-9.615226E-06	-1.70735E-05	-4.530496E-06	-1.555013E-09	-1.449422E-06	-2.534312E-06	-5.093132E-07	-2.900663E-05	-1.617394E-05	9.998204E-06	6.488918E-06	9.347932E-06	8.88441E-06
-1.479005E-05	-5.203578E-06	-7.261078E-07	-7.749632E-06	-1.681909E-05	-4.22844E-06	-1.394089E-06	-2.568271E-06	-6.745337E-07	1.599311E-06	-2.999634E-05	-1.374973E-05	9.353799E-06	5.858584E-06	1.14564E-05	9.722949E-06
-1.479005E-05	-5.203578E-06	-7.261078E-07	-7.749632E-06	-1.681909E-05	-4.22844E-06	-1.394089E-06	-2.568271E-06	-6.745337E-07	1.599311E-06	-2.999634E-05	-1.374973E-05	9.353799E-06	5.858584E-06	1.14564E-05	9.722949E-06
-1.350233E-05	-4.681381E-06	-1.065468E-06	-6.209864E-06	-1.722901E-05	-4.777099E-06	-2.060347E-06	-5.050199E-06	5.59926E-07	4.757973E-06	-3.091034E-05	-1.098803E-05	9.475077E-06	2.541571E-06	1.138144E-05	9.682753E-06
-1.350233E-05	-4.681381E-06	-1.065468E-06	-6.209864E-06	-1.722901E-05	-4.777099E-06	-2.060347E-06	-5.050199E-06	5.59926E-07	4.757973E-06	-3.091034E-05	-1.098803E-05	9.475077E-06	2.541571E-06	1.138144E-05	9.682753E-06
-1.172129E-05	-4.337511E-06	-2.910849E-06	-5.816756E-06	-1.797833E-05	-5.340673E-06	-1.12169E-06	-7.485777E-06	-6.323883E-07	4.25461E-06	-3.017069E-05	-1.168844E-05	9.784068E-06	1.225656E-06	1.153669E-05	9.539625E-06
-1.172129E-05	-4.337511E-06	-2.910849E-06	-5.816756E-06	-1.797833E-05	-5.340673E-06	-1.12169E-06	-7.485777E-06	-6.323883E-07	4.25461E-06	-3.017069E-05	-1.168844E-05	9.784068E-06	1.225656E-06	1.153669E-05	9.539625E-06
-1.071983E-05	-4.168233E-06	-4.532893E-06	-4.462531E-06	-1.803145E-05	-4.97724E-06	7.534632E-07	-9.862735E-06	-3.470818E-06	1.610816E-06	-2.885821E-05	-1.496453E-05	9.513971E-06	1.633015E-06	1.283205E-05	1.08068E-05
-1.071983E-05	-4.168233E-06	-4.532893E-06	-4.462531E-06	-1.803145E-05	-4.97724E-06	7.534632E-07	-9.862735E-06	-3.470818E-06	1.610816E-06	-2.885821E-05	-1.496453E-05	9.513971E-06	1.633015E-06	1.283205E-05	1.08068E-05
-1.120267E-05	-4.149347E-06	-4.295287E-06	-1.059373E-06	-1.695116E-05	-4.309226E-06	2.028918E-06	-1.320601E-05	-3.586039E-06	6.387923E-07	-2.814971E-05	-1.67021E-05	8.423989E-06	2.489925E-06	1.361243E-05	1.259994E-05
-1.120267E-05	-4.149347E-06	-4.295287E-06	-1.059373E-06	-1.695116E-05	-4.309226E-06	2.028918E-06	-1.320601E-05	-3.586039E-06	6.387923E-07	-2.814971E-05	-1.67021E-05	8.423989E-06	2.489925E-06	1.361243E-05	1.259994E-05
-1.263643E-05	-4.075305E-06	-2.692533E-06	2.246745E-06	-1.599401E-05	-4.950911E-06	1.230991E-06	-1.656424E-05	-1.342756E-06	1.44431E-06	-2.867644E-05	-1.729908E-05	7.517642E-06	4.267442E-06	1.397847E-05	1.317842E-05
-1.263643E-05	-4.075305E-06	-2.692533E-06	2.246745E-06	-1.599401E-05	-4.950911E-06	1.230991E-06	-1.656424E-05	-1.342756E-06	1.44431E-06	-2.867644E-05	-1.729908E-05	7.517642E-06	4.267442E-06	1.397847E-05	1.317842E-05
-1.372009E-05	-3.784298E-06	-1.124424E-06	3.291241E-06	-1.605928E-05	-6.49212E-06	-4.294526E-07	-1.811141E-05	9.877954E-08	2.494776E-06	-2.947519E-05	-1.78289E-05	7.464738E-06	5.527156E-06	1.42342E-05	1.299248E-05
-1.372009E-05	-3.784298E-06	-1.124424E-06	3.291241E-06	-1.605928E-05	-6.49212E-06	-4.294526E-07	-1.811141E-05	9.877954E-08	2.494776E-06	-2.947519E-05	-1.78289E-05	7.464738E-06	5.527156E-06	1.42342E-05	1.299248E-05
-1.367198E-05	-3.267732E-06	-4.900696E-07	3.282115E-06	-1.651639E-05	-6.760953E-06	-4.741153E-07	-1.764137E-05	5.711228E-07	2.918331E-06	-2.946816E-05	-1.777055E-05	7.176374E-06	5.108492E-06	1.496029E-05	1.245888E-05
-1.367198E-05	-3.267732E-06	-4.900696E-07	3.282115E-06	-1.651639E-05	-6.760953E-06	-4.741153E-07	-1.764137E-05	5.711228E-07	2.918331E-06	-2.946816E-05	-1.777055E-05	7.176374E-06	5.108492E-06	1.496029E-05	1.245888E-05
-1.306045E-05	-2.50526E-06	-1.291386E-06	5.399062E-06	-1.675532E-05	-5.452227E-06	6.025581E-07	-1.707985E-05	1.739025E-06	8.35607E-07	-2.912814E-05	-1.705757E-05	5.786221E-06	3.858606E-06	1.494998E-05	1.160206E-05
-1.306045E-05	-2.50526E-06	-1.291386E-06	5.399062E-06	-1.675532E-05	-5.452227E-06	6.025581E-07	-1.707985E-05	1.739025E-06	8.35607E-07	-2.912814E-05	-1.705757E-05	5.786221E-06	3.858606E-06	1.494998E-05	1.160206E-05
-1.277279E-05	-1.787745E-06	-3.052326E-06	8.9246E-06	-1.706755E-05	-4.002544E-06	8.642614E-07	-1.851167E-05	3.111149E-06	-1.114732E-06	-2.890581E-05	-1.577647E-05	5.580971E-06	4.051604E-06	1.448797E-05	1.154295E-05
-1.277279E-05	-1.787745E-06	-3.052326E-06	8.9246E-06	-1.706755E-05	-4.002544E-06	8.642614E-07	-1.851167E-05	3.111149E-06	-1.114732E-06	-2.890581E-05	-1.577647E-05	5.580971E-06	4.051604E-06	1.448797E-05	1.154295E-05
-1.285442E-05	-1.70508E-06	-4.427135E-06	9.058422E-06	-1.77928E-05	-3.660644E-06	1.866849E-07	-2.181641E-05	3.659718E-06	-4.618723E-07	-2.921052E-05	-1.521042E-05	7.39411E-06	4.576204E-06	1.438344E-05	1.182359E-05
-1.285442E-05	-1.70508E-06	-4.427135E-06	9.058422E-06	-1.77928E-05	-3.660644E-06	1.866849E-07	-2.181641E-05	3.659718E-06	-4.618723E-07	-2.921052E-05	-1.521042E-05	7.39411E-06	4.576204E-06	1.438344E-05	1.182359E-05
-1.294664E-05	-2.359091E-06	-4.629608E-06	5.007294E-06	-1.822242E-05	-5.148493E-06	-4.281094E-07	-2.481717E-05	4.253622E-06	1.417238E-06	-3.03649E-05	-1.523201E-05	8.639947E-06	4.591293E-06	1.436646E-05	1.113745E-05
-1.294664E-05	-2.359091E-06	-4.629608E-06	5.007294E-06	-1.822242E-05	-5.148493E-06	-4.281094E-07	-2.481717E-05	4.253622E-06	1.417238E-06	-3.03649E-05	-1.523201E-05	8.639947E-06	4.591293E-06	1.436646E-05	1.113745E-05
-1.287549E-05	-3.449343E-06	-3.713351E-06	5.391313E-07	-1.77904E-05	-7.455993E-06	-2.499975E-07	-2.555578E-05	5.061904E-06	2.88991E-06	-3.1573E-05	-1.605797E-05	8.055921E-06	5.009966E-06	1.353582E-05	1.015405E-05
-1.287549E-05	-3.449343E-06	-3.713351E-06	5.391313E-07	-1.77904E-05	-7.455993E-06	-2.499975E-07	-2.555578E-05	5.061904E-06	2.88991E-06	-3.1573E-05	-1.605797E-05	8.055921E-06	5.009966E-06	1.353582E-05	1.015405E-05
-1.277162E-05	-5.186128E-06	-2.280998E-06	-2.153193E-06	-1.746424E-05	-8.192897E-06	4.68827E-07	-2.382468E-05	4.643313E-06	3.460906E-06	-3.237759E-05	-1.815055E-05	7.593183E-06	6.420796E-06	1.219044E-05	1.127704E-05
-1.277162E-05	-5.186128E-06	-2.280998E-06	-2.153193E-06	-1.746424E-05	-8.192897E-06	4.68827E-07	-2.382468E-05	4.643313E-06	3.460906E-06	-3.237759E-05	-1.815055E-05	7.593183E-06	6.420796E-06	1.219044E-05	1.127704E-05
-1.301836E-05	-8.211881E-06	-1.785683E-06	-3.438275E-06	-1.818655E-05	-7.145228E-06	5.05896E-07	-2.061081E-05	3.247535E-06	2.183003E-06	-3.136665E-05	-2.022357E-05	7.719009E-06	6.643932E-06	1.11374E-05	1.316435E-05
-1.301836E-05	-8.211881E-06	-1.785683E-06	-3.438275E-06	-1.818655E-05	-7.145228E-06	5.05896E-07	-2.061081E-05	3.247535E-06	2.183003E-06	-3.136665E-05	-2.022357E-05	7.719009E-06	6.643932E-06	1.11374E-05	1.316435E-05
-1.356431E-05	-1.175594E-05	-2.771439E-06	-4.510683E-06	-1.929502E-05	-6.141597E-06	-7.194921E-07	-1.729383E-05	3.428877E-06	9.445802E-07	-2.975601E-05	-2.106797E-05	7.610699E-06	5.509344E-06	1.135922E-05	1.311915E-05
-1.356431E-05	-1.175594E-05	-2.771439E-06	-4.510683E-06	-1.929502E-05	-6.141597E-06	-7.194921E-07	-1.729383E-05	3.428877E-06	9.445802E-07	-2.975601E-05	-2.106797E-05	7.610699E-06	5.509344E-06	1.135922E-05	1.311915E-05
-1.355953E-05	-1.306108E-05	-3.342104E-06	-6.321908E-06	-1.924916E-05	-5.690685E-06	-1.956933E-06	-1.50864E-05	5.231731E-06	1.379791E-06	-2.916675E-05	-2.159181E-05	7.127219E-06	4.816575E-06	1.277847E-05	1.22589E-05
-1.355953E-05	-1.306108E-05	-3.342104E-06	-6.321908E-06	-1.924916E-05	-5.690685E-06	-1.956933E-06	-1.50864E-05	5.231731E-06	1.379791E-06	-2.916675E-05	-2.159181E-05	7.127219E-06	4.816575E-06	1.277847E-05	1.22589E-05
-1.259705E-05	-1.080334E-05	-2.544487E-06	-8.851396E-06	-1.774937E-05	-5.462483E-06	-1.760833E-06	-1.447243E-05	5.529912E-06	2.657126E-06	-2.882633E-05	-2.128954E-05	6.677556E-06	4.963103E-06	1.387056E-05	1.251296E-05
-1.259705E-05	-1.080334E-05	-2.544487E-06	-8.851396E-06	-1.774937E-05	-5.462483E-06	-1.760833E-06	-1.447243E-05	5.529912E-06	2.657126E-06	-2.882633E-05	-2.128954E-05	6.677556E-06	4.963103E-06	1.387056E-05	1.251296E-05
-1.145178E-05	-6.977667E-06	-1.866629E-06	-1.099297E-05	-1.612563E-05	-5.682462E-06	-1.571627E-07	-1.486158E-05	3.470419E-06	3.8822E-06	-2.870525E-05	-2.124634E-05	7.174968E-06	4.967137E-06	1.377297E-05	1.377767E-05
-1.145178E-05	-6.977667E-06	-1.866629E-06	-1.099297E-05	-1.612563E-05	-5.682462E-06	-1.571627E-07	-1.486158E-05	3.470419E-06	3.8822E-06	-2.870525E-05	-2.124634E-05	7.174968E-06	4.967137E-06	1.377297E-05	1.377767E-05
-1.104616E-05	-4.316807E-06	-1.850066E-06	-1.132314E-05	-1.533943E-05	-6.345595E-06	1.871734E-06	-1.460503E-05	1.519437E-06	4.354006E-06	-2.977631E-05	-2.287096E-05	7.557913E-06	3.991364E-06	1.225402E-05	1.386958E-05
-1.104616E-05	-4.316807E-06	-1.850066E-06	-1.132314E-05	-1.533943E-05	-6.345595E-06	1.871734E-06	-1.460503E-05	1.519437E-06	4.354006E-06	-2.977631E-05	-2.287096E-05	7.557913E-06	3.991364E-06	1.225402E-05	1.386958E-05
-1.159174E-05	-3.799214E-06	-1.821691E-06	-9.747091E-06	-1.554031E-05	-7.086813E-06	3.271083E-06	-1.251491E-05	1.262912E-06	3.085574E-06	-3.183214E-05	-2.392412E-05	7.247375E-06	3.147156E-06	1.093541E-05	1.195636E-05
-1.159174E-05	-3.799214E-06	-1.821691E-06	-9.747091E-06	-1.554031E-05	-7.086813E-06	3.271083E-06	-1.251491E-05	1.262912E-06	3.085574E-06	-3.183214E-05	-2.392412E-05	7.247375E-06	3.147156E-06	1.093541E-05	1.195636E-05
-1.257623E-05	-4.387785E-06	-1.713952E-06	-7.756824E-06	-1.656533E-05	-7.659695E-06	3.626933E-06	-9.451487E-06	2.348535E-06	2.966359E-06	-3.303572E-05	-2.188848E-05	7.5027E-06	3.843101E-06	1.057492E-05	1.063343E-05
-1.257623E-05	-4.387785E-06	-1.713952E-06	-7.756824E-06	-1.656533E-05	-7.659695E-06	3.626933E-06	-9.451487E-06	2.348535E-06	2.966359E-06	-3.303572E-05	-2.188848E-05	7.5027E-06	3.843101E-06	1.057492E-05	1.063343E-05
-1.303284E-05	-4.741597E-06	-1.773424E-06	-7.115718E-06	-1.744396E-05	-7.505541E-06	2.897475E-06	-8.02827E-06	1.798606E-06	4.526757E-06	-3.280347E-05	-1.857831E-05	7.310077E-06	4.886409E-06	1.057571E-05	1.224996E-05
-1.303284E-05	-4.741597E-06	-1.773424E-06	-7.115718E-06	-1.744396E-05	-7.505541E-06	2.897475E-06	-8.02827E-06	1.798606E-06	4.526757E-06	-3.280347E-05	-1.857831E-05	7.310077E-06	4.886409E-06	1.057571E-05	1.224996E-05
-1.239824E-05	-4.857799E-06	-2.165522E-06	-9.241187E-06	-1.731336E-05	-6.125436E-06	1.103881E-06	-9.516139E-06	-3.895349E-07	3.155214E-06	-3.294719E-05	-1.805751E-05	7.414944E-06	5.293739E-06	1.029556E-05	1.20427E-05
-1.239824E-05	-4.857799E-06	-2.165522E-06	-9.241187E-06	-1.731336E-05	-6.125436E-06	1.103881E-06	-9.516139E-06	-3.895349E-07	3.155214E-06	-3.294719E-05	-1.805751E-05	7.414944E-06	5.293739E-06	1.029556E-05	1.20427E-05
-1.137043E-05	-5.367232E-06	-2.728119E-06	-1.369691E-05	-1.674695E-05	-4.814853E-06	-2.087165E-07	-1.065033E-05	-5.312876E-07	1.063148E-06	-3.288659E-05	-2.062005E-05	6.59428E-06	6.723484E-06	1.206546E-05	1.043703E-05
-1.137043E-05	-5.367232E-06	-2.728119E-06	-1.369691E-05	-1.674695E-05	-4.814853E-06	-2.087165E-07	-1.065033E-05	-5.312876E-07	1.063148E-06	-3.288659E-05	-2.062005E-05	6.59428E-06	6.723484E-06	1.206546E-05	1.043703E-05
-1.063555E-05	-5.213183E-06	-2.910249E-06	-1.731611E-05	-1.668673E-05	-4.983453E-06	2.777437E-07	-7.785109E-06	8.009147E-07	7.96688E-07	-3.339212E-05	-2.160623E-05	5.475036E-06	7.989634E-06	1.285739E-05	1.152031E-05
-1.063555E-05	-5.213183E-06	-2.910249E-06	-1.731611E-05	-1.668673E-05	-4.983453E-06	2.777437E-07	-7.785109E-06	8.009147E-07	7.96688E-07	-3.339212E-05	-2.160623E-05	5.475036E-06	7.989634E-06	1.285739E-05	1.152031E-05
-9.894861E-06	-2.902294E-06	-2.598481E-06	-1.81634E-05	-1.697803E-05	-5.710383E-06	1.011645E-06	-2.822246E-06	5.682929E-07	2.465437E-06	-3.403727E-05	-2.063475E-05	6.64152E-06	6.518485E-06	1.187679E-05	1.177917E-05
-9.894861E-06	-2.902294E-06	-2.598481E-06	-1.81634E-05	-1.697803E-05	-5.710383E-06	1.011645E-06	-2.822246E-06	5.682929E-07	2.465437E-06	-3.403727E-05	-2.063475E-05	6.64152E-06	6.518485E-06	1.187679E-05	1.177917E-05
-9.372308E-06	-2.779538E-07	-2.21887E-06	-1.804421E-05	-1.665997E-05	-6.252018E-06	1.041784E-06	-2.929439E-07	-1.654675E-06	3.75631E-06	-3.295684E-05	-1.930046E-05	8.531026E-06	6.416881E-06	1.157521E-05	1.091975E-05
-9.372308E-06	-2.779538E-07	-2.21887E-06	-1.804421E-05	-1.665997E-05	-6.252018E-06	1.041784E-06	-2.929439E-07	-1.654675E-06	3.75631E-06	-3.295684E-05	-1.930046E-05	8.531026E-06	6.416881E-06	1.157521E-05	1.091975E-05
-9.368055E-06	-8.083267E-08	-1.742912E-06	-1.875521E-05	-1.541262E-05	-6.988425E-06	1.498372E-06	-1.71901E-06	-4.438892E-06	4.243496E-06	-3.207722E-05	-1.892558E-05	8.048622E-06	7.053039E-06	1.065187E-05	9.480925E-06
-9.368055E-06	-8.083267E-08	-1.742912E-06	-1.875521E-05	-1.541262E-05	-6.988425E-06	1.498372E-06	-1.71901E-06	-4.438892E-06	4.243496E-06	-3.207722E-05	-1.892558E-05	8.048622E-06	7.053039E-06	1.065187E-05	9.480925E-06
-9.186536E-06	-1.73196E-06	-1.136631E-06	-1.98387E-05	-1.413406E-05	-7.552881E-06	2.469918E-06	-5.742862E-06	-5.935934E-06	5.050972E-06	-3.133417E-05	-1.996387E-05	5.688806E-06	6.346425E-06	1.149791E-05	9.158395E-06
-9.186536E-06	-1.73196E-06	-1.136631E-06	-1.98387E-05	-1.413406E-05	-7.552881E-06	2.469918E-06	-5.742862E-06	-5.935934E-06	5.050972E-06	-3.133417E-05	-1.996387E-05	5.688806E-06	6.346425E-06	1.149791E-05	9.158395E-06
-8.822267E-06	-2.691446E-06	-1.657731E-06	-2.039847E-05	-1.377249E-05	-7.710199E-06	3.032593E-06	-1.081493E-05	-5.141157E-06	5.163622E-06	-3.033515E-05	-2.082304E-05	5.905472E-06	4.619677E-06	1.213943E-05	8.738451E-06
-8.822267E-06	-2.691446E-06	-1.657731E-06	-2.039847E-05	-1.377249E-05	-7.710199E-06	3.032593E-06	-1.081493E-05	-5.141157E-06	5.163622E-06	-3.033515E-05	-2.082304E-05	5.905472E-06	4.619677E-06	1.213943E-05	8.738451E-06
-9.064021E-06	-2.02087E-06	-3.961731E-06	-1.997487E-05	-1.422392E-05	-7.925904E-06	2.77755E-06	-1.537894E-05	-5.685746E-06	5.041489E-06	-2.982282E-05	-2.058961E-05	7.523607E-06	3.797173E-06	1.243279E-05	9.978483E-06
-9.064021E-06	-2.02087E-06	-3.961731E-06	-1.997487E-05	-1.422392E-05	-7.925904E-06	2.77755E-06	-1.537894E-05	-5.685746E-06	5.041489E-06	-2.982282E-05	-2.058961E-05	7.523607E-06	3.797173E-06	1.243279E-05	9.978483E-06
-9.951036E-06	-1.338617E-06	-6.386615E-06	-1.844737E-05	-1.465344E-05	-8.276124E-06	1.841159E-06	-1.811393E-05	-4.957102E-06	4.654907E-06	-3.101659E-05	-2.110313E-05	9.374026E-06	3.562994E-06	1.279951E-05	1.200437E-05
-9.951036E-06	-1.338617E-06	-6.386615E-06	-1.844737E-05	-1.465344E-05	-8.276124E-06	1.841159E-06	-1.811393E-05	-4.957102E-06	4.654907E-06	-3.101659E-05	-2.110313E-05	9.374026E-06	3.562994E-06	1.279951E-05	1.200437E-05
-1.100618E-05	-1.52849E-06	-7.658493E-06	-1.630807E-05	-1.483659E-05	-8.588895E-06	8.52668E-07	-1.946435E-05	-1.912546E-06	4.035789E-06	-3.248164E-05	-2.221776E-05	1.055131E-05	3.279906E-06	1.374944E-05	1.149682E-05
-1.100618E-05	-1.52849E-06	-7.658493E-06	-1.630807E-05	-1.483659E-05	-8.588895E-06	8.52668E-07	-1.946435E-05	-1.912546E-06	4.035789E-06	-3.248164E-05	-2.221776E-05	1.055131E-05	3.279906E-06	1.374944E-05	1.149682E-05
-1.183355E-05	-1.788041E-06	-7.705245E-06	-1.445072E-05	-1.518546E-05	-8.714849E-06	2.289643E-07	-2.056441E-05	-3.500031E-07	3.344206E-06	-3.237464E-05	-2.237004E-05	1.03224E-05	4.242484E-06	1.529342E-05	9.899995E-06
-1.183355E-05	-1.788041E-06	-7.705245E-06	-1.445072E-05	-1.518546E-05	-8.714849E-06	2.289643E-07	-2.056441E-05	-3.500031E-07	3.344206E-06	-3.237464E-05	-2.237004E-05	1.03224E-05	4.242484E-06	1.529342E-05	9.899995E-06
-1.218255E-05	-2.275417E-06	-5.946905E-06	-1.343088E-05	-1.55838E-05	-8.390881E-06	-5.627198E-07	-2.126825E-05	-4.754695E-07	3.200236E-06	-3.018476E-05	-2.251046E-05	8.911101E-06	4.650027E-06	1.649593E-05	9.382708E-06
-1.218255E-05	-2.275417E-06	-5.946905E-06	-1.343088E-05	-1.55838E-05	-8.390881E-06	-5.627198E-07	-2.126825E-05	-4.754695E-07	3.200236E-06	-3.018476E-05	-2.251046E-05	8.911101E-06	4.650027E-06	1.649593E-05	9.382708E-06
-1.207055E-05	-2.929291E-06	-3.08724E-06	-1.290245E-05	-1.588527E-05	-8.110422E-06	-1.28355E-06	-2.083769E-05	-3.988666E-07	2.355532E-06	-2.857957E-05	-2.220869E-05	8.984052E-06	4.321802E-06	1.704801E-05	1.091984E-05
-1.207055E-05	-2.929291E-06	-3.08724E-06	-1.290245E-05	-1.588527E-05	-8.110422E-06	-1.28355E-06	-2.083769E-05	-3.988666E-07	2.355532E-06	-2.857957E-05	-2.220869E-05	8.984052E-06	4.321802E-06	1.704801E-05	1.091984E-05
-1.177411E-05	-2.622439E-06	-1.421532E-06	-1.164767E-05	-1.621952E-05	-8.994472E-06	-8.821538E-07	-1.942382E-05	8.85234E-07	1.588408E-06	-2.849528E-05	-2.074424E-05	9.046922E-06	3.299413E-06	1.633786E-05	1.305977E-05
-1.177411E-05	-2.622439E-06	-1.421532E-06	-1.164767E-05	-1.621952E-05	-8.994472E-06	-8.821538E-07	-1.942382E-05	8.85234E-07	1.588408E-06	-2.849528E-05	-2.074424E-05	9.046922E-06	3.299413E-06	1.633786E-05	1.305977E-05
-1.169809E-05	-1.874662E-06	-1.418123E-06	-8.58009E-06	-1.600946E-05	-1.093031E-05	-3.972998E-07	-1.842266E-05	3.816446E-06	2.71869E-06	-2.839122E-05	-1.88643E-05	7.553336E-06	2.599214E-06	1.62205E-05	1.532481E-05
-1.169809E-05	-1.874662E-06	-1.418123E-06	-8.58009E-06	-1.600946E-05	-1.093031E-05	-3.972998E-07	-1.842266E-05	3.816446E-06	2.71869E-06	-2.839122E-05	-1.88643E-05	7.553336E-06	2.599214E-06	1.62205E-05	1.532481E-05
-1.20601E-05	-2.07457E-06	-2.210635E-06	-4.844073E-06	-1.492932E-05	-1.237112E-05	-1.083594E-06	-1.91073E-05	6.924971E-06	3.625208E-06	-2.786417E-05	-1.862616E-05	6.587271E-06	2.870588E-06	1.687455E-05	1.673559E-05
-1.20601E-05	-2.07457E-06	-2.210635E-06	-4.844073E-06	-1.492932E-05	-1.237112E-05	-1.083594E-06	-1.91073E-05	6.924971E-06	3.625208E-06	-2.786417E-05	-1.862616E-05	6.587271E-06	2.870588E-06	1.687455E-05	1.673559E-05
-1.264907E-05	-3.120385E-06	-3.782986E-06	-3.069212E-06	-1.396986E-05	-1.210919E-05	-1.710133E-06	-2.065835E-05	7.047953E-06	3.052007E-06	-2.803126E-05	-1.934202E-05	7.493078E-06	4.485006E-06	1.763273E-05	1.753422E-05
-1.264907E-05	-3.120385E-06	-3.782986E-06	-3.069212E-06	-1.396986E-05	-1.210919E-05	-1.710133E-06	-2.065835E-05	7.047953E-06	3.052007E-06	-2.803126E-05	-1.934202E-05	7.493078E-06	4.485006E-06	1.763273E-05	1.753422E-05
-1.30996E-05	-4.376308E-06	-5.704445E-06	-2.732538E-06	-1.39447E-05	-1.068409E-05	-1.727455E-06	-2.063321E-05	4.415137E-06	2.249575E-06	-2.956306E-05	-1.949796E-05	9.013459E-06	5.87605E-06	1.753073E-05	1.812822E-05
-1.30996E-05	-4.376308E-06	-5.704445E-06	-2.732538E-06	-1.39447E-05	-1.068409E-05	-1.727455E-06	-2.063321E-05	4.415137E-06	2.249575E-06	-2.956306E-05	-1.949796E-05	9.013459E-06	5.87605E-06	1.753073E-05	1.812822E-05
-1.332714E-05	-5.298011E-06	-6.402257E-06	-1.78045E-06	-1.437466E-05	-9.813166E-06	-2.152954E-06	-1.794007E-05	1.852612E-06	1.330331E-06	-3.128087E-05	-1.876253E-05	1.01703E-05	6.140636E-06	1.716936E-05	1.912617E-05
-1.332714E-05	-5.298011E-06	-6.402257E-06	-1.78045E-06	-1.437466E-05	-9.813166E-06	-2.152954E-06	-1.794007E-05	1.852612E-06	1.330331E-06	-3.128087E-05	-1.876253E-05	1.01703E-05	6.140636E-06	1.716936E-05	1.912617E-05
-1.351898E-05	-5.203101E-06	-4.909283E-06	-1.998154E-06	-1.428143E-05	-1.027326E-05	-2.814927E-06	-1.447406E-05	1.753081E-06	3.849681E-07	-3.223587E-05	-1.798716E-05	1.026463E-05	6.652075E-06	1.667398E-05	1.932269E-05
-1.351898E-05	-5.203101E-06	-4.909283E-06	-1.998154E-06	-1.428143E-05	-1.027326E-05	-2.814927E-06	-1.447406E-05	1.753081E-06	3.849681E-07	-3.223587E-05	-1.798716E-05	1.026463E-05	6.652075E-06	1.667398E-05	1.932269E-05
-1.362231E-05	-4.581143E-06	-2.746718E-06	-5.38557E-06	-1.369152E-05	-1.081691E-05	-2.813326E-06	-1.276747E-05	2.100768E-06	7.955551E-07	-3.278688E-05	-1.767686E-05	8.562437E-06	7.792719E-06	1.71479E-05	1.83556E-05
-1.362231E-05	-4.581143E-06	-2.746718E-06	-5.38557E-06	-1.369152E-05	-1.081691E-05	-2.813326E-06	-1.276747E-05	2.100768E-06	7.955551E-07	-3.278688E-05	-1.767686E-05	8.562437E-06	7.792719E-06	1.71479E-05	1.83556E-05
-1.345016E-05	-4.470264E-06	-2.195763E-06	-1.059582E-05	-1.377362E-05	-1.014914E-05	-2.203755E-06	-1.305631E-05	1.819901E-06	2.389551E-06	-3.356276E-05	-1.723765E-05	8.989389E-06	7.234026E-06	1.934899E-05	1.763234E-05
-1.345016E-05	-4.470264E-06	-2.195763E-06	-1.059582E-05	-1.377362E-05	-1.014914E-05	-2.203755E-06	-1.305631E-05	1.819901E-06	2.389551E-06	-3.356276E-05	-1.723765E-05	8.989389E-06	7.234026E-06	1.934899E-05	1.763234E-05
-1.334417E-05	-4.173565E-06	-2.606733E-06	-1.603404E-05	-1.510338E-05	-9.343781E-06	-1.899947E-06	-1.339754E-05	1.129788E-06	3.060695E-06	-3.236252E-05	-1.638745E-05	1.049401E-05	6.894768E-06	2.121837E-05	1.836775E-05
-1.334417E-05	-4.173565E-06	-2.606733E-06	-1.603404E-05	-1.510338E-05	-9.343781E-06	-1.899947E-06	-1.339754E-05	1.129788E-06	3.060695E-06	-3.236252E-05	-1.638745E-05	1.049401E-05	6.894768E-06	2.121837E-05	1.836775E-05
-1.353003E-05	-3.01703E-06	-2.453039E-06	-2.018486E-05	-1.678542E-05	-9.336937E-06	-2.480016E-06	-1.218277E-05	4.385386E-07	3.671139E-06	-3.067309E-05	-1.687995E-05	1.052088E-05	7.113792E-06	2.073304E-05	1.901616E-05
-1.353003E-05	-3.01703E-06	-2.453039E-06	-2.018486E-05	-1.678542E-05	-9.336937E-06	-2.480016E-06	-1.218277E-05	4.385386E-07	3.671139E-06	-3.067309E-05	-1.687995E-05	1.052088E-05	7.113792E-06	2.073304E-05	1.901616E-05
-1.356428E-05	-2.126747E-06	-2.327123E-06	-2.147818E-05	-1.760652E-05	-8.897292E-06	-3.426392E-06	-1.001374E-05	-1.313179E-06	4.331944E-06	-3.090829E-05	-1.764012E-05	8.744668E-06	6.054266E-06	2.025728E-05	1.876405E-05
-1.356428E-05	-2.126747E-06	-2.327123E-06	-2.147818E-05	-1.760652E-05	-8.897292E-06	-3.426392E-06	-1.001374E-05	-1.313179E-06	4.331944E-06	-3.090829E-05	-1.764012E-05	8.744668E-06	6.054266E-06	2.025728E-05	1.876405E-05
-1.35565E-05	-2.307752E-06	-2.76544E-06	-2.118445E-05	-1.766993E-05	-7.708568E-06	-3.945963E-06	-8.536274E-06	-1.103504E-06	4.514907E-06	-3.203657E-05	-1.760958E-05	8.83814E-06	5.726952E-06	1.97813E-05	1.780562E-05
-1.35565E-05	-2.307752E-06	-2.76544E-06	-2.118445E-05	-1.766993E-05	-7.708568E-06	-3.945963E-06	-8.536274E-06	-1.103504E-06	4.514907E-06	-3.203657E-05	-1.760958E-05	8.83814E-06	5.726952E-06	1.97813E-05	1.780562E-05
-1.379694E-05	-2.991463E-06	-3.534312E-06	-2.133614E-05	-1.801484E-05	-6.814526E-06	-3.900765E-06	-8.043732E-06	-6.170866E-07	5.12849E-06	-3.194046E-05	-1.70845E-05	1.077135E-05	6.546815E-06	1.896333E-05	1.735971E-05
-1.379694E-05	-2.991463E-06	-3.534312E-06	-2.133614E-05	-1.801484E-05	-6.814526E-06	-3.900765E-06	-8.043732E-06	-6.170866E-07	5.12849E-06	-3.194046E-05	-1.70845E-05	1.077135E-05	6.546815E-06	1.896333E-05	1.735971E-05
-1.335585E-05	-2.947952E-06	-4.449992E-06	-2.068417E-05	-1.86366E-05	-6.900331E-06	-3.672603E-06	-7.437554E-06	-4.919215E-07	4.817579E-06	-3.252015E-05	-1.846029E-05	1.12316E-05	6.528303E-06	1.872869E-05	1.672104E-05
-1.335585E-05	-2.947952E-06	-4.449992E-06	-2.068417E-05	-1.86366E-05	-6.900331E-06	-3.672603E-06	-7.437554E-06	-4.919215E-07	4.817579E-06	-3.252015E-05	-1.846029E-05	1.12316E-05	6.528303E-06	1.872869E-05	1.672104E-05
-1.230202E-05	-2.371771E-06	-4.699294E-06	-1.855924E-05	-1.822557E-05	-7.713494E-06	-3.413078E-06	-6.481456E-06	5.178602E-08	5.170419E-06	-3.412366E-05	-2.026869E-05	1.046304E-05	6.553512E-06	1.551089E-05	1.606117E-05
-1.230202E-05	-2.371771E-06	-4.699294E-06	-1.855924E-05	-1.822557E-05	-7.713494E-06	-3.413078E-06	-6.481456E-06	5.178602E-08	5.170419E-06	-3.412366E-05	-2.026869E-05	1.046304E-05	6.553512E-06	1.551089E-05	1.606117E-05
-1.244453E-05	-3.140077E-06	-3.604168E-06	-1.705224E-05	-1.635023E-05	-8.10863E-06	-3.013739E-06	-5.880933E-06	-5.907865E-07	5.691142E-06	-3.495569E-05	-1.836554E-05	9.674744E-06	8.504522E-06	1.23205E-05	1.49498E-05
-1.244453E-05	-3.140077E-06	-3.604168E-06	-1.705224E-05	-1.635023E-05	-8.10863E-06	-3.013739E-06	-5.880933E-06	-5.907865E-07	5.691142E-06	-3.495569E-05	-1.836554E-05	9.674744E-06	8.504522E-06	1.23205E-05	1.49498E-05
-1.370297E-05	-4.900058E-06	-1.636819E-06	-1.621229E-05	-1.475973E-05	-8.312066E-06	-2.855766E-06	-5.597064E-06	-1.559474E-06	6.391677E-06	-3.41522E-05	-1.568329E-05	1.09744E-05	1.131665E-05	1.196675E-05	1.391477E-05
-1.370297E-05	-4.900058E-06	-1.636819E-06	-1.621229E-05	-1.475973E-05	-8.312066E-06	-2.855766E-06	-5.597064E-06	-1.559474E-06	6.391677E-06	-3.41522E-05	-1.568329E-05	1.09744E-05	1.131665E-05	1.196675E-05	1.391477E-05
-1.409389E-05	-5.588939E-06	-3.191159E-07	-1.468953E-05	-1.498048E-05	-9.228394E-06	-3.634872E-06	-5.3302E-06	-3.730742E-06	7.455429E-06	-3.206949E-05	-1.528107E-05	1.273475E-05	1.149693E-05	1.165571E-05	1.234348E-05
-1.409389E-05	-5.588939E-06	-3.191159E-07	-1.468953E-05	-1.498048E-05	-9.228394E-06	-3.634872E-06	-5.3302E-06	-3.730742E-06	7.455429E-06	-3.206949E-05	-1.528107E-05	1.273475E-05	1.149693E-05	1.165571E-05	1.234348E-05
-1.309636E-05	-5.189434E-06	-1.08094E-06	-1.308474E-05	-1.622308E-05	-9.867194E-06	-5.304905E-06	-5.176738E-06	-2.882999E-06	8.802708E-06	-3.207208E-05	-1.65869E-05	1.231636E-05	1.032084E-05	1.052523E-05	1.077398E-05
-1.309636E-05	-5.189434E-06	-1.08094E-06	-1.308474E-05	-1.622308E-05	-9.867194E-06	-5.304905E-06	-5.176738E-06	-2.882999E-06	8.802708E-06	-3.207208E-05	-1.65869E-05	1.231636E-05	1.032084E-05	1.052523E-05	1.077398E-05
-1.232298E-05	-4.929651E-06	-2.991962E-06	-1.230879E-05	-1.682386E-05	-9.273547E-06	-6.58893E-06	-5.060126E-06	-4.778919E-07	9.056951E-06	-3.338239E-05	-1.732746E-05	9.659851E-06	1.010519E-05	9.003723E-06	9.85884E-06
-1.232298E-05	-4.929651E-06	-2.991962E-06	-1.230879E-05	-1.682386E-05	-9.273547E-06	-6.58893E-06	-5.060126E-06	-4.778919E-07	9.056951E-06	-3.338239E-05	-1.732746E-05	9.659851E-06	1.010519E-05	9.003723E-06	9.85884E-06
-1.287859E-05	-5.290465E-06	-4.198328E-06	-1.206352E-05	-1.622032E-05	-8.045503E-06	-6.397917E-06	-4.787273E-06	1.205738E-06	9.041501E-06	-3.33134E-05	-1.748106E-05	7.327026E-06	1.06272E-05	8.573514E-06	9.667534E-06
-1.287859E-05	-5.290465E-06	-4.198328E-06	-1.206352E-05	-1.622032E-05	-8.045503E-06	-6.397917E-06	-4.787273E-06	1.205738E-06	9.041501E-06	-3.33134E-05	-1.748106E-05	7.327026E-06	1.06272E-05	8.573514E-06	9.667534E-06
-1.355715E-05	-5.824711E-06	-4.969521E-06	-1.166032E-05	-1.530625E-05	-6.935321E-06	-5.357188E-06	-4.475263E-06	1.430343E-06	9.831685E-06	-3.289524E-05	-1.670042E-05	8.031334E-06	1.075612E-05	8.373681E-06	1.129333E-05
-1.355715E-05	-5.824711E-06	-4.969521E-06	-1.166032E-05	-1.530625E-05	-6.935321E-06	-5.357188E-06	-4.475263E-06	1.430343E-06	9.831685E-06	-3.289524E-05	-1.670042E-05	8.031334E-06	1.075612E-05	8.373681E-06	1.129333E-05
-1.312501E-05	-5.775815E-06	-5.889897E-06	-1.113817E-05	-1.500923E-05	-6.090762E-06	-4.790269E-06	-4.526412E-06	1.133815E-06	9.356359E-06	-3.254714E-05	-1.628937E-05	9.571502E-06	1.019557E-05	8.726773E-06	1.166162E-05
-1.312501E-05	-5.775815E-06	-5.889897E-06	-1.113817E-05	-1.500923E-05	-6.090762E-06	-4.790269E-06	-4.526412E-06	1.133815E-06	9.356359E-06	-3.254714E-05	-1.628937E-05	9.571502E-06	1.019557E-05	8.726773E-06	1.166162E-05
-1.201072E-05	-5.139043E-06	-6.480329E-06	-1.088358E-05	-1.5105E-05	-5.49514E-06	-5.105742E-06	-5.528908E-06	1.776735E-06	8.251873E-06	-3.255784E-05	-1.628099E-05	1.073841E-05	9.375587E-06	9.895547E-06	1.164689E-05
-1.201072E-05	-5.139043E-06	-6.480329E-06	-1.088358E-05	-1.5105E-05	-5.49514E-06	-5.105742E-06	-5.528908E-06	1.776735E-06	8.251873E-06	-3.255784E-05	-1.628099E-05	1.073841E-05	9.375587E-06	9.895547E-06	1.164689E-05
-1.111442E-05	-4.822042E-06	-6.867846E-06	-1.052777E-05	-1.486835E-05	-5.352341E-06	-5.540488E-06	-7.86826E-06	2.533034E-06	7.125623E-06	-3.355103E-05	-1.724321E-05	1.034144E-05	8.616225E-06	1.018145E-05	1.138056E-05
-1.111442E-05	-4.822042E-06	-6.867846E-06	-1.052777E-05	-1.486835E-05	-5.352341E-06	-5.540488E-06	-7.86826E-06	2.533034E-06	7.125623E-06	-3.355103E-05	-1.724321E-05	1.034144E-05	8.616225E-06	1.018145E-05	1.138056E-05
-1.117886E-05	-4.928195E-06	-7.479009E-06	-1.003578E-05	-1.420928E-05	-5.54766E-06	-4.913774E-06	-1.067183E-05	1.578632E-06	4.998969E-06	-3.490683E-05	-1.894485E-05	7.868465E-06	8.322096E-06	9.486208E-06	9.90582E-06
-1.117886E-05	-4.928195E-06	-7.479009E-06	-1.003578E-05	-1.420928E-05	-5.54766E-06	-4.913774E-06	-1.067183E-05	1.578632E-06	4.998969E-06	-3.490683E-05	-1.894485E-05	7.868465E-06	8.322096E-06	9.486208E-06	9.90582E-06
-1.232696E-05	-4.339294E-06	-7.943152E-06	-9.971609E-06	-1.392599E-05	-5.799796E-06	-3.057478E-06	-1.239109E-05	-1.791148E-06	1.926612E-06	-3.427174E-05	-1.987255E-05	5.403409E-06	7.734784E-06	9.110377E-06	7.400541E-06
-1.232696E-05	-4.339294E-06	-7.943152E-06	-9.971609E-06	-1.392599E-05	-5.799796E-06	-3.057478E-06	-1.239109E-05	-1.791148E-06	1.926612E-06	-3.427174E-05	-1.987255E-05	5.403409E-06	7.734784E-06	9.110377E-06	7.400541E-06
-1.343136E-05	-2.829862E-06	-7.687968E-06	-9.66686E-06	-1.478391E-05	-6.594597E-06	-1.514596E-06	-1.292655E-05	-4.219713E-06	-3.21642E-07	-3.199837E-05	-2.078284E-05	4.529662E-06	7.588094E-06	9.245959E-06	7.023616E-06
-1.343136E-05	-2.829862E-06	-7.687968E-06	-9.66686E-06	-1.478391E-05	-6.594597E-06	-1.514596E-06	-1.292655E-05	-4.219713E-06	-3.21642E-07	-3.199837E-05	-2.078284E-05	4.529662E-06	7.588094E-06	9.245959E-06	7.023616E-06
-1.336967E-05	-1.425816E-06	-7.126066E-06	-8.561975E-06	-1.617826E-05	-8.092836E-06	-1.749178E-06	-1.287123E-05	-4.179058E-06	-5.171132E-07	-3.109471E-05	-2.202151E-05	4.643158E-06	6.98867E-06	9.428829E-06	8.210476E-06
-1.336967E-05	-1.425816E-06	-7.126066E-06	-8.561975E-06	-1.617826E-05	-8.092836E-06	-1.749178E-06	-1.287123E-05	-4.179058E-06	-5.171132E-07	-3.109471E-05	-2.202151E-05	4.643158E-06	6.98867E-06	9.428829E-06	8.210476E-06
-1.260786E-05	-8.140743E-07	-7.308805E-06	-7.812083E-06	-1.655348E-05	-9.19858E-06	-3.273585E-06	-1.220024E-05	-3.663872E-06	9.034562E-07	-3.126604E-05	-2.298602E-05	5.13225E-06	5.598995E-06	9.697321E-06	9.191635E-06
-1.260786E-05	-8.140743E-07	-7.308805E-06	-7.812083E-06	-1.655348E-05	-9.19858E-06	-3.273585E-06	-1.220024E-05	-3.663872E-06	9.034562E-07	-3.126604E-05	-2.298602E-05	5.13225E-06	5.598995E-06	9.697321E-06	9.191635E-06
-1.258857E-05	-6.636346E-07	-7.866218E-06	-7.788468E-06	-1.582042E-05	-9.210657E-06	-4.546432E-06	-1.193834E-05	-4.651952E-06	2.197364E-06	-3.146819E-05	-2.266002E-05	6.351429E-06	4.172958E-06	9.193644E-06	9.558649E-06
-1.258857E-05	-6.636346E-07	-7.866218E-06	-7.788468E-06	-1.582042E-05	-9.210657E-06	-4.546432E-06	-1.193834E-05	-4.651952E-06	2.197364E-06	-3.146819E-05	-2.266002E-05	6.351429E-06	4.172958E-06	9.193644E-06	9.558649E-06
-1.368351E-05	-2.431065E-07	-7.60519E-06	-7.7968E-06	-1.542513E-05	-8.298052E-06	-4.751209E-06	-1.304982E-05	-4.135721E-06	1.917909E-06	-3.170252E-05	-2.18135E-05	7.931795E-06	3.442565E-06	9.066451E-06	9.346043E-06
-1.368351E-05	-2.431065E-07	-7.60519E-06	-7.7968E-06	-1.542513E-05	-8.298052E-06	-4.751209E-06	-1.304982E-05	-4.135721E-06	1.917909E-06	-3.170252E-05	-2.18135E-05	7.931795E-06	3.442565E-06	9.066451E-06	9.346043E-06
-1.449039E-05	5.103808E-07	-6.906115E-06	-8.125858E-06	-1.591944E-05	-6.638873E-06	-4.473151E-06	-1.378381E-05	-2.910113E-06	4.083547E-07	-3.187191E-05	-2.188668E-05	8.475455E-06	3.784484E-06	9.842276E-06	8.5124E-06
-1.449039E-05	5.103808E-07	-6.906115E-06	-8.125858E-06	-1.591944E-05	-6.638873E-06	-4.473151E-06	-1.378381E-05	-2.910113E-06	4.083547E-07	-3.187191E-05	-2.188668E-05	8.475455E-06	3.784484E-06	9.842276E-06	8.5124E-06
-1.41922E-05	8.136957E-07	-6.814763E-06	-8.539671E-06	-1.636434E-05	-5.217173E-06	-4.858724E-06	-1.265351E-05	-3.010414E-06	7.546759E-08	-3.210462E-05	-2.138503E-05	7.801193E-06	4.338794E-06	1.052342E-05	7.97944E-06
-1.41922E-05	8.136957E-07	-6.814763E-06	-8.539671E-06	-1.636434E-05	-5.217173E-06	-4.858724E-06	-1.265351E-05	-3.010414E-06	7.546759E-08	-3.210462E-05	-2.138503E-05	7.801193E-06	4.338794E-06	1.052342E-05	7.97944E-06
-1.353227E-05	-8.065923E-08	-7.274232E-06	-7.782294E-06	-1.595004E-05	-5.34682E-06	-6.055211E-06	-1.104965E-05	-3.163932E-06	1.0628E-06	-3.116309E-05	-1.783659E-05	7.139894E-06	4.468893E-06	1.02502E-05	8.812135E-06
-1.353227E-05	-8.065923E-08	-7.274232E-06	-7.782294E-06	-1.595004E-05	-5.34682E-06	-6.055211E-06	-1.104965E-05	-3.163932E-06	1.0628E-06	-3.116309E-05	-1.783659E-05	7.139894E-06	4.468893E-06	1.02502E-05	8.812135E-06
-1.279275E-05	-1.939053E-06	-7.459721E-06	-6.197024E-06	-1.540301E-05	-6.555848E-06	-6.945009E-06	-1.074781E-05	-2.841267E-06	1.495244E-06	-3.049072E-05	-1.648188E-05	6.335639E-06	5.078163E-06	8.994961E-06	1.098517E-05
-1.279275E-05	-1.939053E-06	-7.459721E-06	-6.197024E-06	-1.540301E-05	-6.555848E-06	-6.945009E-06	-1.074781E-05	-2.841267E-06	1.495244E-06	-3.049072E-05	-1.648188E-05	6.335639E-06	5.078163E-06	8.994961E-06	1.098517E-05
-1.215593E-05	-3.510623E-06	-6.838434E-06	-5.583487E-06	-1.577754E-05	-7.768223E-06	-6.934993E-06	-1.157164E-05	-2.476148E-06	3.160308E-07	-3.246865E-05	-1.724755E-05	6.860418E-06	6.271754E-06	8.613712E-06	1.377908E-05
-1.215593E-05	-3.510623E-06	-6.838434E-06	-5.583487E-06	-1.577754E-05	-7.768223E-06	-6.934993E-06	-1.157164E-05	-2.476148E-06	3.160308E-07	-3.246865E-05	-1.724755E-05	6.860418E-06	6.271754E-06	8.613712E-06	1.377908E-05
-1.24055E-05	-3.813768E-06	-5.76647E-06	-6.672011E-06	-1.676054E-05	-8.996919E-06	-6.795954E-06	-1.204961E-05	-1.617352E-06	-7.413457E-07	-3.373498E-05	-1.748441E-05	8.457008E-06	6.149946E-06	1.038642E-05	1.421409E-05
-1.24055E-05	-3.813768E-06	-5.76647E-06	-6.672011E-06	-1.676054E-05	-8.996919E-06	-6.795954E-06	-1.204961E-05	-1.617352E-06	-7.413457E-07	-3.373498E-05	-1.748441E-05	8.457008E-06	6.149946E-06	1.038642E-05	1.421409E-05
-1.305172E-05	-3.0494E-06	-5.187665E-06	-8.18151E-06	-1.765466E-05	-9.720357E-06	-6.712445E-06	-1.239589E-05	-2.714606E-07	-9.199915E-07	-3.374016E-05	-1.7164E-05	8.076488E-06	3.638883E-06	1.303121E-05	1.501083E-05
-1.305172E-05	-3.0494E-06	-5.187665E-06	-8.18151E-06	-1.765466E-05	-9.720357E-06	-6.712445E-06	-1.239589E-05	-2.714606E-07	-9.199915E-07	-3.374016E-05	-1.7164E-05	8.076488E-06	3.638883E-06	1.303121E-05	1.501083E-05
-1.291422E-05	-1.798861E-06	-5.486193E-06	-8.263731E-06	-1.857656E-05	-8.840452E-06	-6.087617E-06	-1.441333E-05	-3.56301E-07	-7.741376E-07	-3.318259E-05	-1.705578E-05	6.345699E-06	2.036161E-06	1.262531E-05	1.715174E-05
-1.291422E-05	-1.798861E-06	-5.486193E-06	-8.263731E-06	-1.857656E-05	-8.840452E-06	-6.087617E-06	-1.441333E-05	-3.56301E-07	-7.741376E-07	-3.318259E-05	-1.705578E-05	6.345699E-06	2.036161E-06	1.262531E-05	1.715174E-05
-1.2203E-05	-8.079081E-07	-5.686295E-06	-5.992408E-06	-1.953569E-05	-6.979619E-06	-5.391028E-06	-1.740946E-05	7.143561E-07	-1.953683E-06	-3.246069E-05	-1.720023E-05	4.296597E-06	1.224227E-06	9.982124E-06	1.82675E-05
-1.2203E-05	-8.079081E-07	-5.686295E-06	-5.992408E-06	-1.953569E-05	-6.979619E-06	-5.391028E-06	-1.740946E-05	7.143561E-07	-1.953683E-06	-3.246069E-05	-1.720023E-05	4.296597E-06	1.224227E-06	9.982124E-06	1.82675E-05
-1.155512E-05	-6.932635E-07	-4.89749E-06	-1.978205E-06	-1.979642E-05	-6.051755E-06	-5.064956E-06	-1.907895E-05	4.502014E-06	-2.536809E-06	-3.187743E-05	-1.62663E-05	3.152873E-06	1.683181E-06	8.813359E-06	1.662278E-05
-1.155512E-05	-6.932635E-07	-4.89749E-06	-1.978205E-06	-1.979642E-05	-6.051755E-06	-5.064956E-06	-1.907895E-05	4.502014E-06	-2.536809E-06	-3.187743E-05	-1.62663E-05	3.152873E-06	1.683181E-06	8.813359E-06	1.662278E-05
-1.101315E-05	-7.916383E-07	-3.919982E-06	1.483972E-06	-1.934046E-05	-6.642457E-06	-4.386292E-06	-1.933184E-05	5.847993E-06	-8.709625E-07	-3.117835E-05	-1.709135E-05	4.025684E-06	2.898634E-06	8.479582E-06	1.394442E-05
-1.101315E-05	-7.916383E-07	-3.919982E-06	1.483972E-06	-1.934046E-05	-6.642457E-06	-4.386292E-06	-1.933184E-05	5.847993E-06	-8.709625E-07	-3.117835E-05	-1.709135E-05	4.025684E-06	2.898634E-06	8.479582E-06	1.394442E-05
-1.062077E-05	-6.498228E-07	-4.069375E-06	2.360635E-06	-1.91575E-05	-7.520136E-06	-3.387314E-06	-1.888979E-05	4.625652E-06	8.46416E-07	-3.104286E-05	-1.661652E-05	4.429638E-06	3.462984E-06	1.026113E-05	1.363563E-05
-1.062077E-05	-6.498228E-07	-4.069375E-06	2.360635E-06	-1.91575E-05	-7.520136E-06	-3.387314E-06	-1.888979E-05	4.625652E-06	8.46416E-07	-3.104286E-05	-1.661652E-05	4.429638E-06	3.462984E-06	1.026113E-05	1.363563E-05
-1.025203E-05	-1.252338E-06	-5.251599E-06	5.473136E-07	-1.935151E-05	-7.860667E-06	-3.055152E-06	-1.786184E-05	2.133605E-06	1.404436E-06	-3.106058E-05	-1.460909E-05	5.447379E-06	4.083415E-06	1.25976E-05	1.368351E-05
-1.025203E-05	-1.252338E-06	-5.251599E-06	5.473136E-07	-1.935151E-05	-7.860667E-06	-3.055152E-06	-1.786184E-05	2.133605E-06	1.404436E-06	-3.106058E-05	-1.460909E-05	5.447379E-06	4.083415E-06	1.25976E-05	1.368351E-05
-9.662459E-06	-2.90818E-06	-5.99404E-06	-3.126094E-06	-1.893663E-05	-7.883519E-06	-3.436653E-06	-1.673049E-05	1.02513E-06	1.308985E-06	-3.061911E-05	-1.345857E-05	7.539143E-06	5.789991E-06	1.287378E-05	1.378468E-05
-9.662459E-06	-2.90818E-06	-5.99404E-06	-3.126094E-06	-1.893663E-05	-7.883519E-06	-3.436653E-06	-1.673049E-05	1.02513E-06	1.308985E-06	-3.061911E-05	-1.345857E-05	7.539143E-06	5.789991E-06	1.287378E-05	1.378468E-05
-9.343016E-06	-4.124238E-06	-5.059003E-06	-7.661789E-06	-1.743585E-05	-7.252489E-06	-3.528415E-06	-1.543174E-05	2.717386E-06	1.557075E-06	-2.974555E-05	-1.365927E-05	9.779033E-06	7.342548E-06	1.131295E-05	1.345257E-05
-9.343016E-06	-4.124238E-06	-5.059003E-06	-7.661789E-06	-1.743585E-05	-7.252489E-06	-3.528415E-06	-1.543174E-05	2.717386E-06	1.557075E-06	-2.974555E-05	-1.365927E-05	9.779033E-06	7.342548E-06	1.131295E-05	1.345257E-05
-9.721825E-06	-3.904837E-06	-2.826964E-06	-1.161081E-05	-1.56428E-05	-5.820365E-06	-3.016056E-06	-1.382101E-05	2.944011E-06	2.271274E-06	-2.897093E-05	-1.416496E-05	1.099385E-05	7.018537E-06	1.091748E-05	1.323543E-05
-9.721825E-06	-3.904837E-06	-2.826964E-06	-1.161081E-05	-1.56428E-05	-5.820365E-06	-3.016056E-06	-1.382101E-05	2.944011E-06	2.271274E-06	-2.897093E-05	-1.416496E-05	1.099385E-05	7.018537E-06	1.091748E-05	1.323543E-05
-1.017249E-05	-3.321245E-06	-1.145332E-06	-1.418889E-05	-1.485946E-05	-4.735784E-06	-2.877827E-06	-1.293175E-05	1.405862E-06	2.510873E-06	-2.851581E-05	-1.369274E-05	1.087322E-05	6.180711E-06	1.130701E-05	1.401292E-05
-1.017249E-05	-3.321245E-06	-1.145332E-06	-1.418889E-05	-1.485946E-05	-4.735784E-06	-2.877827E-06	-1.293175E-05	1.405862E-06	2.510873E-06	-2.851581E-05	-1.369274E-05	1.087322E-05	6.180711E-06	1.130701E-05	1.401292E-05
-1.024336E-05	-3.352918E-06	-1.52074E-06	-1.680726E-05	-1.515103E-05	-4.527116E-06	-3.354539E-06	-1.283165E-05	1.370977E-07	2.857861E-06	-2.870337E-05	-1.276027E-05	1.091132E-05	6.024085E-06	1.144552E-05	1.485641E-05
-1.024336E-05	-3.352918E-06	-1.52074E-06	-1.680726E-05	-1.515103E-05	-4.527116E-06	-3.354539E-06	-1.283165E-05	1.370977E-07	2.857861E-06	-2.870337E-05	-1.276027E-05	1.091132E-05	6.024085E-06	1.144552E-05	1.485641E-05
-1.015582E-05	-3.489045E-06	-3.670877E-06	-2.058744E-05	-1.542882E-05	-4.721622E-06	-3.251334E-06	-1.232678E-05	-1.545388E-07	3.124581E-06	-2.952857E-05	-1.27016E-05	1.173322E-05	6.718512E-06	1.220538E-05	1.392684E-05
-1.015582E-05	-3.489045E-06	-3.670877E-06	-2.058744E-05	-1.542882E-05	-4.721622E-06	-3.251334E-06	-1.232678E-05	-1.545388E-07	3.124581E-06	-2.952857E-05	-1.27016E-05	1.173322E-05	6.718512E-06	1.220538E-05	1.392684E-05
-9.951315E-06	-3.099072E-06	-6.012127E-06	-2.347339E-05	-1.529122E-05	-5.385918E-06	-2.022072E-06	-1.142746E-05	-1.370811E-06	2.630368E-06	-2.989024E-05	-1.344396E-05	1.150874E-05	7.487522E-06	1.283906E-05	1.196193E-05
-9.951315E-06	-3.099072E-06	-6.012127E-06	-2.347339E-05	-1.529122E-05	-5.385918E-06	-2.022072E-06	-1.142746E-05	-1.370811E-06	2.630368E-06	-2.989024E-05	-1.344396E-05	1.150874E-05	7.487522E-06	1.283906E-05	1.196193E-05
-9.916295E-06	-2.741391E-06	-7.185036E-06	-2.356742E-05	-1.482476E-05	-6.277373E-06	-1.135531E-06	-1.065926E-05	-3.932358E-06	2.207811E-06	-2.978547E-05	-1.38362E-05	9.268196E-06	7.776597E-06	1.343646E-05	1.100926E-05
-9.916295E-06	-2.741391E-06	-7.185036E-06	-2.356742E-05	-1.482476E-05	-6.277373E-06	-1.135531E-06	-1.065926E-05	-3.932358E-06	2.207811E-06	-2.978547E-05	-1.38362E-05	9.268196E-06	7.776597E-06	1.343646E-05	1.100926E-05
-1.037737E-05	-3.504342E-06	-7.011427E-06	-2.191048E-05	-1.407089E-05	-6.446686E-06	-2.188018E-06	-9.790365E-06	-4.627613E-06	2.027659E-06	-2.993224E-05	-1.403557E-05	6.858266E-06	7.148361E-06	1.387607E-05	1.016339E-05
-1.037737E-05	-3.504342E-06	-7.011427E-06	-2.191048E-05	-1.407089E-05	-6.446686E-06	-2.188018E-06	-9.790365E-06	-4.627613E-06	2.027659E-06	-2.993224E-05	-1.403557E-05	6.858266E-06	7.148361E-06	1.387607E-05	1.016339E-05
-1.044262E-05	-5.049506E-06	-6.167136E-06	-2.008822E-05	-1.379127E-05	-5.932675E-06	-3.85999E-06	-8.868892E-06	-2.32947E-06	1.121805E-06	-3.01651E-05	-1.277169E-05	6.104042E-06	6.712451E-06	1.444688E-05	1.008946E-05
-1.044262E-05	-5.049506E-06	-6.167136E-06	-2.008822E-05	-1.379127E-05	-5.932675E-06	-3.85999E-06	-8.868892E-06	-2.32947E-06	1.121805E-06	-3.01651E-05	-1.277169E-05	6.104042E-06	6.712451E-06	1.444688E-05	1.008946E-05
-9.532421E-06	-6.085355E-06	-5.297173E-06	-1.816706E-05	-1.466708E-05	-5.536284E-06	-3.862428E-06	-8.625231E-06	-6.405756E-07	-3.451665E-07	-3.05789E-05	-1.069813E-05	7.166597E-06	6.717125E-06	1.362755E-05	1.113136E-05
-9.532421E-06	-6.085355E-06	-5.297173E-06	-1.816706E-05	-1.466708E-05	-5.536284E-06	-3.862428E-06	-8.625231E-06	-6.405756E-07	-3.451665E-07	-3.05789E-05	-1.069813E-05	7.166597E-06	6.717125E-06	1.362755E-05	1.113136E-05
-8.862827E-06	-6.266652E-06	-4.582618E-06	-1.504797E-05	-1.602859E-05	-5.398765E-06	-2.510589E-06	-9.510019E-06	-1.371235E-06	-5.304141E-07	-3.084219E-05	-9.340682E-06	8.672469E-06	7.093272E-06	1.213616E-05	1.119205E-05
-8.862827E-06	-6.266652E-06	-4.582618E-06	-1.504797E-05	-1.602859E-05	-5.398765E-06	-2.510589E-06	-9.510019E-06	-1.371235E-06	-5.304141E-07	-3.084219E-05	-9.340682E-06	8.672469E-06	7.093272E-06	1.213616E-05	1.119205E-05
-9.246489E-06	-6.056078E-06	-4.146399E-06	-1.109036E-05	-1.643848E-05	-5.04021E-06	-1.473429E-06	-1.055943E-05	-2.863035E-06	-9.088894E-07	-3.013649E-05	-1.038855E-05	9.434664E-06	8.155204E-06	1.272502E-05	8.749465E-06
-9.246489E-06	-6.056078E-06	-4.146399E-06	-1.109036E-05	-1.643848E-05	-5.04021E-06	-1.473429E-06	-1.055943E-05	-2.863035E-06	-9.088894E-07	-3.013649E-05	-1.038855E-05	9.434664E-06	8.155204E-06	1.272502E-05	8.749465E-06
-9.822887E-06	-5.76609E-06	-3.821974E-06	-9.159881E-06	-1.523514E-05	-4.161247E-06	-1.696001E-06	-1.04944E-05	-3.343211E-06	-1.863004E-06	-2.923674E-05	-1.317629E-05	9.978314E-06	8.671796E-06	1.444128E-05	7.125946E-06
-9.822887E-06	-5.76609E-06	-3.821974E-06	-9.159881E-06	-1.523514E-05	-4.161247E-06	-1.696001E-06	-1.04944E-05	-3.343211E-06	-1.863004E-06	-2.923674E-05	-1.317629E-05	9.978314E-06	8.671796E-06	1.444128E-05	7.125946E-06
-9.621194E-06	-5.279623E-06	-2.851738E-06	-1.129247E-05	-1.337211E-05	-3.197412E-06	-2.981389E-06	-9.72102E-06	-3.842396E-06	-1.079913E-06	-2.914743E-05	-1.482499E-05	1.065179E-05	8.209941E-06	1.41503E-05	7.894324E-06
-9.621194E-06	-5.279623E-06	-2.851738E-06	-1.129247E-05	-1.337211E-05	-3.197412E-06	-2.981389E-06	-9.72102E-06	-3.842396E-06	-1.079913E-06	-2.914743E-05	-1.482499E-05	1.065179E-05	8.209941E-06	1.41503E-05	7.894324E-06
-9.155481E-06	-4.59817E-06	-1.844215E-06	-1.535153E-05	-1.237483E-05	-3.07702E-06	-3.882511E-06	-8.891975E-06	-4.616581E-06	8.49717E-08	-2.88884E-05	-1.404839E-05	1.070989E-05	7.305615E-06	1.39796E-05	9.386185E-06
-9.155481E-06	-4.59817E-06	-1.844215E-06	-1.535153E-05	-1.237483E-05	-3.07702E-06	-3.882511E-06	-8.891975E-06	-4.616581E-06	8.49717E-08	-2.88884E-05	-1.404839E-05	1.070989E-05	7.305615E-06	1.39796E-05	9.386185E-06
-9.561287E-06	-4.162295E-06	-2.415351E-06	-1.729526E-05	-1.283508E-05	-4.114252E-06	-3.299982E-06	-8.366534E-06	-3.154747E-06	-3.322132E-07	-2.783782E-05	-1.266384E-05	1.003409E-05	6.532026E-06	1.458993E-05	1.047141E-05
-9.561287E-06	-4.162295E-06	-2.415351E-06	-1.729526E-05	-1.283508E-05	-4.114252E-06	-3.299982E-06	-8.366534E-06	-3.154747E-06	-3.322132E-07	-2.783782E-05	-1.266384E-05	1.003409E-05	6.532026E-06	1.458993E-05	1.047141E-05
-1.035234E-05	-4.216441E-06	-3.778413E-06	-1.649221E-05	-1.416314E-05	-5.261825E-06	-2.356139E-06	-9.833615E-06	4.801468E-07	4.880716E-07	-2.704228E-05	-1.238179E-05	9.791923E-06	7.227164E-06	1.438947E-05	1.167219E-05
-1.035234E-05	-4.216441E-06	-3.778413E-06	-1.649221E-05	-1.416314E-05	-5.261825E-06	-2.356139E-06	-9.833615E-06	4.801468E-07	4.880716E-07	-2.704228E-05	-1.238179E-05	9.791923E-06	7.227164E-06	1.438947E-05	1.167219E-05
-1.069922E-05	-4.378587E-06	-3.829152E-06	-1.515793E-05	-1.513474E-05	-5.158995E-06	-2.715303E-06	-1.306621E-05	1.841019E-06	1.898379E-06	-2.700807E-05	-1.414936E-05	1.001748E-05	7.256918E-06	1.234585E-05	1.295472E-05
-1.069922E-05	-4.378587E-06	-3.829152E-06	-1.515793E-05	-1.513474E-05	-5.158995E-06	-2.715303E-06	-1.306621E-05	1.841019E-06	1.898379E-06	-2.700807E-05	-1.414936E-05	1.001748E-05	7.256918E-06	1.234585E-05	1.295472E-05
-1.114348E-05	-4.152005E-06	-2.460107E-06	-1.459381E-05	-1.50141E-05	-3.798114E-06	-4.160271E-06	-1.469718E-05	-1.798168E-08	3.050457E-06	-2.703676E-05	-1.530628E-05	1.012021E-05	7.802406E-06	9.678531E-06	1.305119E-05
-1.114348E-05	-4.152005E-06	-2.460107E-06	-1.459381E-05	-1.50141E-05	-3.798114E-06	-4.160271E-06	-1.469718E-05	-1.798168E-08	3.050457E-06	-2.703676E-05	-1.530628E-05	1.012021E-05	7.802406E-06	9.678531E-06	1.305119E-05
-1.171184E-05	-3.532215E-06	-7.869709E-07	-1.481202E-05	-1.459601E-05	-3.432672E-06	-5.052971E-06	-1.35065E-05	-8.720161E-07	3.880347E-06	-2.816163E-05	-1.61062E-05	9.474722E-06	8.829125E-06	1.00467E-05	1.23893E-05
-1.171184E-05	-3.532215E-06	-7.869709E-07	-1.481202E-05	-1.459601E-05	-3.432672E-06	-5.052971E-06	-1.35065E-05	-8.720161E-07	3.880347E-06	-2.816163E-05	-1.61062E-05	9.474722E-06	8.829125E-06	1.00467E-05	1.23893E-05
-1.157224E-05	-2.841476E-06	4.102977E-07	-1.494297E-05	-1.488012E-05	-5.768319E-06	-4.244434E-06	-1.104482E-05	7.108774E-07	2.462732E-06	-2.96454E-05	-1.615531E-05	8.477253E-06	7.565135E-06	1.178377E-05	1.341105E-05
-1.157224E-05	-2.841476E-06	4.102977E-07	-1.494297E-05	-1.488012E-05	-5.768319E-06	-4.244434E-06	-1.104482E-05	7.108774E-07	2.462732E-06	-2.96454E-05	-1.615531E-05	8.477253E-06	7.565135E-06	1.178377E-05	1.341105E-05
-1.071932E-05	-2.709403E-06	-2.078144E-08	-1.332399E-05	-1.519942E-05	-7.493973E-06	-2.681169E-06	-9.560546E-06	2.651021E-06	2.536409E-06	-2.998238E-05	-1.338709E-05	9.180521E-06	5.927177E-06	1.303408E-05	1.451127E-05
-1.071932E-05	-2.709403E-06	-2.078144E-08	-1.332399E-05	-1.519942E-05	-7.493973E-06	-2.681169E-06	-9.560546E-06	2.651021E-06	2.536409E-06	-2.998238E-05	-1.338709E-05	9.180521E-06	5.927177E-06	1.303408E-05	1.451127E-05
-1.016142E-05	-3.337126E-06	-2.029476E-06	-9.722731E-06	-1.494384E-05	-5.731808E-06	-2.318719E-06	-1.015265E-05	4.679115E-06	5.113546E-06	-3.045399E-05	-1.198789E-05	9.743643E-06	5.410051E-06	1.360674E-05	1.409254E-05
-1.016142E-05	-3.337126E-06	-2.029476E-06	-9.722731E-06	-1.494384E-05	-5.731808E-06	-2.318719E-06	-1.015265E-05	4.679115E-06	5.113546E-06	-3.045399E-05	-1.198789E-05	9.743643E-06	5.410051E-06	1.360674E-05	1.409254E-05
-1.057717E-05	-3.741877E-06	-3.116927E-06	-5.913124E-06	-1.484826E-05	-4.01519E-06	-3.644785E-06	-1.092859E-05	4.896401E-06	5.362143E-06	-3.04534E-05	-1.343479E-05	7.755335E-06	5.967238E-06	1.453043E-05	1.362824E-05
-1.057717E-05	-3.741877E-06	-3.116927E-06	-5.913124E-06	-1.484826E-05	-4.01519E-06	-3.644785E-06	-1.092859E-05	4.896401E-06	5.362143E-06	-3.04534E-05	-1.343479E-05	7.755335E-06	5.967238E-06	1.453043E-05	1.362824E-05
-1.113921E-05	-3.514552E-06	-2.55343E-06	-2.439936E-06	-1.511767E-05	-5.23272E-06	-5.696801E-06	-1.124408E-05	1.987343E-06	4.531008E-06	-2.963981E-05	-1.440872E-05	6.828259E-06	8.064387E-06	1.484996E-05	1.431495E-05
-1.113921E-05	-3.514552E-06	-2.55343E-06	-2.439936E-06	-1.511767E-05	-5.23272E-06	-5.696801E-06	-1.124408E-05	1.987343E-06	4.531008E-06	-2.963981E-05	-1.440872E-05	6.828259E-06	8.064387E-06	1.484996E-05	1.431495E-05
-1.126978E-05	-3.360327E-06	-2.023392E-06	1.551923E-06	-1.548576E-05	-7.433247E-06	-7.222214E-06	-1.228495E-05	4.262785E-07	3.596558E-06	-3.045149E-05	-1.425339E-05	8.143345E-06	9.03829E-06	1.401358E-05	1.421979E-05
-1.126978E-05	-3.360327E-06	-2.023392E-06	1.551923E-06	-1.548576E-05	-7.433247E-06	-7.222214E-06	-1.228495E-05	4.262785E-07	3.596558E-06	-3.045149E-05	-1.425339E-05	8.143345E-06	9.03829E-06	1.401358E-05	1.421979E-05
-1.189E-05	-3.486294E-06	-1.904438E-06	5.658404E-06	-1.613068E-05	-8.48345E-06	-7.276638E-06	-1.29972E-05	8.142998E-07	1.82533E-06	-3.246458E-05	-1.388969E-05	7.022923E-06	8.173021E-06	1.400337E-05	1.340624E-05
-1.189E-05	-3.486294E-06	-1.904438E-06	5.658404E-06	-1.613068E-05	-8.48345E-06	-7.276638E-06	-1.29972E-05	8.142998E-07	1.82533E-06	-3.246458E-05	-1.388969E-05	7.022923E-06	8.173021E-06	1.400337E-05	1.340624E-05
-1.311642E-05	-3.627964E-06	-1.703499E-06	8.179771E-06	-1.659789E-05	-8.101712E-06	-5.95631E-06	-1.261184E-05	2.024213E-06	1.041311E-06	-3.356758E-05	-1.129808E-05	6.355962E-06	6.864983E-06	1.347355E-05	1.33113E-05
-1.311642E-05	-3.627964E-06	-1.703499E-06	8.179771E-06	-1.659789E-05	-8.101712E-06	-5.95631E-06	-1.261184E-05	2.024213E-06	1.041311E-06	-3.356758E-05	-1.129808E-05	6.355962E-06	6.864983E-06	1.347355E-05	1.33113E-05
-1.388582E-05	-3.838934E-06	-1.605712E-06	7.691988E-06	-1.640334E-05	-6.793324E-06	-4.192897E-06	-1.236884E-05	2.547284E-06	1.887266E-06	-3.442015E-05	-9.708864E-06	6.392353E-06	6.176454E-06	1.173761E-05	1.388466E-05
-1.388582E-05	-3.838934E-06	-1.605712E-06	7.691988E-06	-1.640334E-05	-6.793324E-06	-4.192897E-06	-1.236884E-05	2.547284E-06	1.887266E-06	-3.442015E-05	-9.708864E-06	6.392353E-06	6.176454E-06	1.173761E-05	1.388466E-05
-1.376644E-05	-4.315278E-06	-1.89059E-06	3.939776E-06	-1.630106E-05	-5.351245E-06	-2.580206E-06	-1.284779E-05	1.674116E-06	2.734844E-06	-3.420421E-05	-1.09876E-05	6.550217E-06	6.214886E-06	8.85745E-06	1.460462E-05
-1.376644E-05	-4.315278E-06	-1.89059E-06	3.939776E-06	-1.630106E-05	-5.351245E-06	-2.580206E-06	-1.284779E-05	1.674116E-06	2.734844E-06	-3.420421E-05	-1.09876E-05	6.550217E-06	6.214886E-06	8.85745E-06	1.460462E-05
-1.307974E-05	-4.809459E-06	-2.286867E-06	-1.802928E-06	-1.676985E-05	-4.732758E-06	-1.296673E-06	-1.344414E-05	9.165404E-07	2.319502E-06	-3.311325E-05	-1.241503E-05	6.132347E-06	7.758628E-06	6.52785E-06	1.351889E-05
-1.307974E-05	-4.809459E-06	-2.286867E-06	-1.802928E-06	-1.676985E-05	-4.732758E-06	-1.296673E-06	-1.344414E-05	9.165404E-07	2.319502E-06	-3.311325E-05	-1.241503E-05	6.132347E-06	7.758628E-06	6.52785E-06	1.351889E-05
-1.22933E-05	-4.902373E-06	-2.35121E-06	-7.098555E-06	-1.726897E-05	-5.26467E-06	-5.645998E-07	-1.334106E-05	3.865476E-08	1.534058E-06	-3.281325E-05	-1.326769E-05	4.713871E-06	9.082176E-06	5.682529E-06	1.213542E-05
-1.22933E-05	-4.902373E-06	-2.35121E-06	-7.098555E-06	-1.726897E-05	-5.26467E-06	-5.645998E-07	-1.334106E-05	3.865476E-08	1.534058E-06	-3.281325E-05	-1.326769E-05	4.713871E-06	9.082176E-06	5.682529E-06	1.213542E-05
-1.17736E-05	-4.719513E-06	-2.218147E-06	-1.006173E-05	-1.759961E-05	-6.075391E-06	-5.036661E-07	-1.21764E-05	-9.868237E-07	1.314427E-06	-3.275763E-05	-1.387666E-05	3.207784E-06	8.008632E-06	6.773919E-06	1.125843E-05
-1.17736E-05	-4.719513E-06	-2.218147E-06	-1.006173E-05	-1.759961E-05	-6.075391E-06	-5.036661E-07	-1.21764E-05	-9.868237E-07	1.314427E-06	-3.275763E-05	-1.387666E-05	3.207784E-06	8.008632E-06	6.773919E-06	1.125843E-05
-1.189706E-05	-4.467433E-06	-2.497131E-06	-1.050565E-05	-1.824926E-05	-6.038641E-06	-1.143868E-06	-1.07881E-05	-7.651827E-07	1.931925E-06	-3.144389E-05	-1.621204E-05	3.448242E-06	6.046964E-06	8.018771E-06	1.107329E-05
-1.189706E-05	-4.467433E-06	-2.497131E-06	-1.050565E-05	-1.824926E-05	-6.038641E-06	-1.143868E-06	-1.07881E-05	-7.651827E-07	1.931925E-06	-3.144389E-05	-1.621204E-05	3.448242E-06	6.046964E-06	8.018771E-06	1.107329E-05
-1.265963E-05	-4.162817E-06	-3.298382E-06	-9.368372E-06	-1.913279E-05	-4.998465E-06	-2.309952E-06	-1.02776E-05	-3.019907E-07	2.368082E-06	-3.006502E-05	-2.016113E-05	5.511596E-06	5.359556E-06	8.474182E-06	1.185822E-05
-1.265963E-05	-4.162817E-06	-3.298382E-06	-9.368372E-06	-1.913279E-05	-4.998465E-06	-2.309952E-06	-1.02776E-05	-3.019907E-07	2.368082E-06	-3.006502E-05	-2.016113E-05	5.511596E-06	5.359556E-06	8.474182E-06	1.185822E-05
-1.295348E-05	-4.241402E-06	-3.639921E-06	-7.78725E-06	-1.882213E-05	-3.902555E-06	-3.169478E-06	-1.010601E-05	-3.767876E-07	1.391433E-06	-2.991285E-05	-2.283412E-05	6.838879E-06	6.025329E-06	9.183163E-06	1.278489E-05
-1.295348E-05	-4.241402E-06	-3.639921E-06	-7.78725E-06	-1.882213E-05	-3.902555E-06	-3.169478E-06	-1.010601E-05	-3.767876E-07	1.391433E-06	-2.991285E-05	-2.283412E-05	6.838879E-06	6.025329E-06	9.183163E-06	1.278489E-05
-1.200765E-05	-4.798649E-06	-2.974501E-06	-5.952146E-06	-1.729766E-05	-3.720072E-06	-2.95989E-06	-1.005517E-05	4.539661E-07	2.106456E-07	-2.930702E-05	-2.37422E-05	8.108006E-06	6.485936E-06	9.543594E-06	1.198373E-05
-1.200765E-05	-4.798649E-06	-2.974501E-06	-5.952146E-06	-1.729766E-05	-3.720072E-06	-2.95989E-06	-1.005517E-05	4.539661E-07	2.106456E-07	-2.930702E-05	-2.37422E-05	8.108006E-06	6.485936E-06	9.543594E-06	1.198373E-05
-1.074409E-05	-5.123075E-06	-2.284002E-06	-2.903209E-06	-1.709298E-05	-4.323485E-06	-1.989455E-06	-1.14892E-05	2.338593E-06	1.029345E-06	-2.840998E-05	-2.361169E-05	9.031532E-06	6.509056E-06	9.049329E-06	1.054085E-05
-1.074409E-05	-5.123075E-06	-2.284002E-06	-2.903209E-06	-1.709298E-05	-4.323485E-06	-1.989455E-06	-1.14892E-05	2.338593E-06	1.029345E-06	-2.840998E-05	-2.361169E-05	9.031532E-06	6.509056E-06	9.049329E-06	1.054085E-05
-1.016639E-05	-5.340833E-06	-2.175347E-06	9.870813E-07	-1.852762E-05	-4.700496E-06	-1.035793E-06	-1.317055E-05	3.907458E-06	1.490186E-06	-2.875285E-05	-2.323069E-05	8.585805E-06	6.002741E-06	8.512383E-06	1.007815E-05
-1.016639E-05	-5.340833E-06	-2.175347E-06	9.870813E-07	-1.852762E-05	-4.700496E-06	-1.035793E-06	-1.317055E-05	3.907458E-06	1.490186E-06	-2.875285E-05	-2.323069E-05	8.585805E-06	6.002741E-06	8.512383E-06	1.007815E-05
-1.041E-05	-6.089366E-06	-2.425933E-06	2.931903E-06	-1.921086E-05	-4.821901E-06	-5.600984E-07	-1.287425E-05	4.129514E-06	1.522572E-07	-2.99698E-05	-2.273154E-05	7.074524E-06	5.69451E-06	9.470035E-06	9.496864E-06
-1.041E-05	-6.089366E-06	-2.425933E-06	2.931903E-06	-1.921086E-05	-4.821901E-06	-5.600984E-07	-1.287425E-05	4.129514E-06	1.522572E-07	-2.99698E-05	-2.273154E-05	7.074524E-06	5.69451E-06	9.470035E-06	9.496864E-06
-1.142027E-05	-6.731107E-06	-3.236654E-06	5.730998E-07	-1.860248E-05	-6.246117E-06	-6.814823E-07	-1.27441E-05	3.88207E-06	-6.897912E-07	-3.042716E-05	-2.185361E-05	6.404588E-06	5.744298E-06	1.152058E-05	8.572812E-06
-1.142027E-05	-6.731107E-06	-3.236654E-06	5.730998E-07	-1.860248E-05	-6.246117E-06	-6.814823E-07	-1.27441E-05	3.88207E-06	-6.897912E-07	-3.042716E-05	-2.185361E-05	6.404588E-06	5.744298E-06	1.152058E-05	8.572812E-06
-1.270747E-05	-6.493684E-06	-4.151841E-06	-5.267455E-06	-1.800764E-05	-8.573645E-06	-1.257334E-06	-1.480564E-05	3.733299E-06	-1.368727E-07	-3.184706E-05	-2.230924E-05	6.137156E-06	5.728219E-06	1.204131E-05	9.198517E-06
-1.270747E-05	-6.493684E-06	-4.151841E-06	-5.267455E-06	-1.800764E-05	-8.573645E-06	-1.257334E-06	-1.480564E-05	3.733299E-06	-1.368727E-07	-3.184706E-05	-2.230924E-05	6.137156E-06	5.728219E-06	1.204131E-05	9.198517E-06
-1.33711E-05	-5.350361E-06	-3.792938E-06	-1.194147E-05	-1.813586E-05	-9.426818E-06	-1.908871E-06	-1.726221E-05	2.91132E-06	5.030477E-07	-3.362525E-05	-2.292862E-05	9.016197E-06	5.291321E-06	1.033702E-05	1.069182E-05
-1.33711E-05	-5.350361E-06	-3.792938E-06	-1.194147E-05	-1.813586E-05	-9.426818E-06	-1.908871E-06	-1.726221E-05	2.91132E-06	5.030477E-07	-3.362525E-05	-2.292862E-05	9.016197E-06	5.291321E-06	1.033702E-05	1.069182E-05
-1.311742E-05	-3.147664E-06	-1.997131E-06	-1.828165E-05	-1.855815E-05	-9.307961E-06	-2.138903E-06	-1.88062E-05	1.799448E-07	5.689668E-07	-3.309939E-05	-2.209934E-05	1.137059E-05	6.170452E-06	1.031606E-05	1.169218E-05
-1.311742E-05	-3.147664E-06	-1.997131E-06	-1.828165E-05	-1.855815E-05	-9.307961E-06	-2.138903E-06	-1.88062E-05	1.799448E-07	5.689668E-07	-3.309939E-05	-2.209934E-05	1.137059E-05	6.170452E-06	1.031606E-05	1.169218E-05
-1.27971E-05	-9.876655E-07	-4.097089E-07	-2.426496E-05	-1.876111E-05	-9.78098E-06	-2.020408E-06	-1.963748E-05	-3.538345E-06	1.095246E-06	-3.242974E-05	-2.111152E-05	9.06581E-06	6.398791E-06	1.179251E-05	1.064307E-05
-1.27971E-05	-9.876655E-07	-4.097089E-07	-2.426496E-05	-1.876111E-05	-9.78098E-06	-2.020408E-06	-1.963748E-05	-3.538345E-06	1.095246E-06	-3.242974E-05	-2.111152E-05	9.06581E-06	6.398791E-06	1.179251E-05	1.064307E-05
-1.33997E-05	-9.475663E-07	-4.97522E-07	-2.915189E-05	-1.89509E-05	-1.000292E-05	-2.206853E-06	-1.977974E-05	-5.540777E-06	1.243553E-06	-3.299072E-05	-2.149458E-05	7.188433E-06	4.176208E-06	1.202493E-05	8.021175E-06
-1.33997E-05	-9.475663E-07	-4.97522E-07	-2.915189E-05	-1.89509E-05	-1.000292E-05	-2.206853E-06	-1.977974E-05	-5.540777E-06	1.243553E-06	-3.299072E-05	-2.149458E-05	7.188433E-06	4.176208E-06	1.202493E-05	8.021175E-06
-1.42262E-05	-2.794633E-06	-1.995461E-06	-3.182188E-05	-1.878391E-05	-9.402175E-06	-2.393636E-06	-1.97261E-05	-4.676315E-06	1.977934E-06	-3.456449E-05	-2.178524E-05	7.818174E-06	3.306618E-06	1.067709E-05	6.914203E-06
-1.42262E-05	-2.794633E-06	-1.995461E-06	-3.182188E-05	-1.878391E-05	-9.402175E-06	-2.393636E-06	-1.97261E-05	-4.676315E-06	1.977934E-06	-3.456449E-05	-2.178524E-05	7.818174E-06	3.306618E-06	1.067709E-05	6.914203E-06
-1.378401E-05	-4.660379E-06	-4.060658E-06	-3.188167E-05	-1.746676E-05	-8.455098E-06	-1.641321E-06	-1.983283E-05	-4.271096E-06	2.630929E-06	-3.489934E-05	-2.126625E-05	9.330297E-06	5.08836E-06	1.076348E-05	6.854591E-06
-1.378401E-05	-4.660379E-06	-4.060658E-06	-3.188167E-05	-1.746676E-05	-8.455098E-06	-1.641321E-06	-1.983283E-05	-4.271096E-06	2.630929E-06	-3.489934E-05	-2.126625E-05	9.330297E-06	5.08836E-06	1.076348E-05	6.854591E-06
-1.240772E-05	-4.882315E-06	-5.517189E-06	-2.99303E-05	-1.608165E-05	-7.381602E-06	-4.972109E-07	-1.861586E-05	-4.581123E-06	2.677768E-06	-3.355039E-05	-2.030479E-05	1.103696E-05	5.244987E-06	1.235142E-05	6.372627E-06
-1.240772E-05	-4.882315E-06	-5.517189E-06	-2.99303E-05	-1.608165E-05	-7.381602E-06	-4.972109E-07	-1.861586E-05	-4.581123E-06	2.677768E-06	-3.355039E-05	-2.030479E-05	1.103696E-05	5.244987E-06	1.235142E-05	6.372627E-06
-1.205565E-05	-3.658626E-06	-5.089371E-06	-2.777361E-05	-1.616349E-05	-6.514293E-06	-8.434928E-08	-1.435641E-05	-4.479442E-06	4.250177E-06	-3.362884E-05	-1.941422E-05	1.07899E-05	4.907082E-06	1.292242E-05	5.357499E-06
-1.205565E-05	-3.658626E-06	-5.089371E-06	-2.777361E-05	-1.616349E-05	-6.514293E-06	-8.434928E-08	-1.435641E-05	-4.479442E-06	4.250177E-06	-3.362884E-05	-1.941422E-05	1.07899E-05	4.907082E-06	1.292242E-05	5.357499E-06
-1.336478E-05	-3.730253E-06	-3.692172E-06	-2.707278E-05	-1.712043E-05	-6.047944E-06	-6.146259E-07	-7.764341E-06	-4.574498E-06	4.834972E-06	-3.477231E-05	-1.968945E-05	8.753469E-06	5.1214E-06	1.166647E-05	5.671156E-06
-1.336478E-05	-3.730253E-06	-3.692172E-06	-2.707278E-05	-1.712043E-05	-6.047944E-06	-6.146259E-07	-7.764341E-06	-4.574498E-06	4.834972E-06	-3.477231E-05	-1.968945E-05	8.753469E-06	5.1214E-06	1.166647E-05	5.671156E-06
-1.419386E-05	-5.217112E-06	-2.806016E-06	-2.65031E-05	-1.820216E-05	-6.172548E-06	-2.277894E-06	-1.601832E-06	-2.860291E-06	4.842067E-06	-3.432476E-05	-2.144962E-05	7.419721E-06	5.217577E-06	1.090154E-05	6.885671E-06
-1.419386E-05	-5.217112E-06	-2.806016E-06	-2.65031E-05	-1.820216E-05	-6.172548E-06	-2.277894E-06	-1.601832E-06	-2.860291E-06	4.842067E-06	-3.432476E-05	-2.144962E-05	7.419721E-06	5.217577E-06	1.090154E-05	6.885671E-06
-1.314781E-05	-5.209601E-06	-2.478303E-06	-2.473915E-05	-1.925911E-05	-6.718727E-06	-3.935313E-06	6.077761E-07	-2.483633E-06	5.89797E-06	-3.320972E-05	-2.479629E-05	6.336307E-06	4.63916E-06	1.20953E-05	7.474836E-06
-1.314781E-05	-5.209601E-06	-2.478303E-06	-2.473915E-05	-1.925911E-05	-6.718727E-06	-3.935313E-06	6.077761E-07	-2.483633E-06	5.89797E-06	-3.320972E-05	-2.479629E-05	6.336307E-06	4.63916E-06	1.20953E-05	7.474836E-06
-1.196112E-05	-3.432361E-06	-2.801416E-06	-2.316986E-05	-1.947082E-05	-6.410909E-06	-3.087909E-06	-3.606775E-06	-4.719991E-06	5.704178E-06	-3.227537E-05	-2.527629E-05	5.356159E-06	3.565244E-06	1.370102E-05	8.822989E-06
-1.196112E-05	-3.432361E-06	-2.801416E-06	-2.316986E-05	-1.947082E-05	-6.410909E-06	-3.087909E-06	-3.606775E-06	-4.719991E-06	5.704178E-06	-3.227537E-05	-2.527629E-05	5.356159E-06	3.565244E-06	1.370102E-05	8.822989E-06
-1.227851E-05	-2.033173E-06	-3.497046E-06	-2.161037E-05	-1.878933E-05	-4.637519E-06	-3.980045E-07	-1.252079E-05	-5.342396E-06	4.277831E-06	-3.120139E-05	-2.423921E-05	4.838837E-06	2.976291E-06	1.482059E-05	1.109318E-05
-1.227851E-05	-2.033173E-06	-3.497046E-06	-2.161037E-05	-1.878933E-05	-4.637519E-06	-3.980045E-07	-1.252079E-05	-5.342396E-06	4.277831E-06	-3.120139E-05	-2.423921E-05	4.838837E-06	2.976291E-06	1.482059E-05	1.109318E-05
-1.344642E-05	-2.130425E-06	-3.560907E-06	-1.8779E-05	-1.812317E-05	-3.097265E-06	1.015356E-06	-2.079667E-05	-2.502965E-06	3.608055E-06	-3.149982E-05	-2.375022E-05	4.856129E-06	3.416017E-06	1.538976E-05	1.17365E-05
-1.344642E-05	-2.130425E-06	-3.560907E-06	-1.8779E-05	-1.812317E-05	-3.097265E-06	1.015356E-06	-2.079667E-05	-2.502965E-06	3.608055E-06	-3.149982E-05	-2.375022E-05	4.856129E-06	3.416017E-06	1.538976E-05	1.17365E-05
-1.383811E-05	-3.015211E-06	-2.820188E-06	-1.597414E-05	-1.752009E-05	-4.128492E-06	2.176971E-07	-2.48742E-05	1.98533E-06	2.865016E-06	-3.2059E-05	-2.291933E-05	5.993425E-06	3.910075E-06	1.508743E-05	1.137866E-05
-1.383811E-05	-3.015211E-06	-2.820188E-06	-1.597414E-05	-1.752009E-05	-4.128492E-06	2.176971E-07	-2.48742E-05	1.98533E-06	2.865016E-06	-3.2059E-05	-2.291933E-05	5.993425E-06	3.910075E-06	1.508743E-05	1.137866E-05
-1.313484E-05	-3.592253E-06	-1.975736E-06	-1.460202E-05	-1.654829E-05	-7.133114E-06	-1.820729E-06	-2.62321E-05	4.361345E-06	2.184783E-06	-3.259658E-05	-2.198112E-05	7.548339E-06	3.303201E-06	1.42227E-05	1.176873E-05
-1.313484E-05	-3.592253E-06	-1.975736E-06	-1.460202E-05	-1.654829E-05	-7.133114E-06	-1.820729E-06	-2.62321E-05	4.361345E-06	2.184783E-06	-3.259658E-05	-2.198112E-05	7.548339E-06	3.303201E-06	1.42227E-05	1.176873E-05
-1.25293E-05	-3.604057E-06	-1.395503E-06	-1.434962E-05	-1.551153E-05	-8.924594E-06	-3.807673E-06	-2.750155E-05	4.886727E-06	1.99677E-06	-3.167865E-05	-2.163646E-05	8.597595E-06	2.405204E-06	1.419392E-05	1.225469E-05
-1.25293E-05	-3.604057E-06	-1.395503E-06	-1.434962E-05	-1.551153E-05	-8.924594E-06	-3.807673E-06	-2.750155E-05	4.886727E-06	1.99677E-06	-3.167865E-05	-2.163646E-05	8.597595E-06	2.405204E-06	1.419392E-05	1.225469E-05
-1.26006E-05	-3.390824E-06	-8.12774E-07	-1.468055E-05	-1.515955E-05	-8.096257E-06	-4.506317E-06	-2.78085E-05	5.152932E-06	2.184312E-06	-3.017405E-05	-2.226995E-05	8.089844E-06	1.514566E-06	1.501404E-05	1.195595E-05
-1.26006E-05	-3.390824E-06	-8.12774E-07	-1.468055E-05	-1.515955E-05	-8.096257E-06	-4.506317E-06	-2.78085E-05	5.152932E-06	2.184312E-06	-3.017405E-05	-2.226995E-05	8.089844E-06	1.514566E-06	1.501404E-05	1.195595E-05
-1.275728E-05	-2.889251E-06	-3.829387E-07	-1.468331E-05	-1.540211E-05	-6.405138E-06	-4.015053E-06	-2.619527E-05	5.541549E-06	2.739911E-06	-2.923788E-05	-2.309908E-05	7.70978E-06	1.487794E-06	1.571349E-05	1.116826E-05
-1.275728E-05	-2.889251E-06	-3.829387E-07	-1.468331E-05	-1.540211E-05	-6.405138E-06	-4.015053E-06	-2.619527E-05	5.541549E-06	2.739911E-06	-2.923788E-05	-2.309908E-05	7.70978E-06	1.487794E-06	1.571349E-05	1.116826E-05
-1.237518E-05	-1.743396E-06	-7.921518E-07	-1.329213E-05	-1.541373E-05	-6.179496E-06	-3.447245E-06	-2.388172E-05	4.903236E-06	4.066852E-06	-2.809035E-05	-2.272483E-05	7.875533E-06	1.801394E-06	1.522766E-05	1.084631E-05
-1.237518E-05	-1.743396E-06	-7.921518E-07	-1.329213E-05	-1.541373E-05	-6.179496E-06	-3.447245E-06	-2.388172E-05	4.903236E-06	4.066852E-06	-2.809035E-05	-2.272483E-05	7.875533E-06	1.801394E-06	1.522766E-05	1.084631E-05
-1.155916E-05	-6.843555E-07	-1.846066E-06	-1.088559E-05	-1.519612E-05	-7.58703E-06	-2.910577E-06	-2.068003E-05	3.195859E-06	4.855188E-06	-2.692443E-05	-2.072619E-05	7.892887E-06	2.238636E-06	1.450968E-05	1.191417E-05
-1.155916E-05	-6.843555E-07	-1.846066E-06	-1.088559E-05	-1.519612E-05	-7.58703E-06	-2.910577E-06	-2.068003E-05	3.195859E-06	4.855188E-06	-2.692443E-05	-2.072619E-05	7.892887E-06	2.238636E-06	1.450968E-05	1.191417E-05
-1.094988E-05	-8.263262E-07	-2.88574E-06	-8.711332E-06	-1.506787E-05	-9.345415E-06	-2.053808E-06	-1.697305E-05	1.890401E-06	4.069856E-06	-2.592539E-05	-1.863524E-05	7.627004E-06	3.417735E-06	1.457937E-05	1.364404E-05
-1.094988E-05	-8.263262E-07	-2.88574E-06	-8.711332E-06	-1.506787E-05	-9.345415E-06	-2.053808E-06	-1.697305E-05	1.890401E-06	4.069856E-06	-2.592539E-05	-1.863524E-05	7.627004E-06	3.417735E-06	1.457937E-05	1.364404E-05
-1.104948E-05	-2.07713E-06	-3.972958E-06	-7.327484E-06	-1.472223E-05	-1.070327E-05	-1.310093E-06	-1.549273E-05	1.708658E-06	3.033699E-06	-2.587886E-05	-1.779123E-05	7.221113E-06	4.936287E-06	1.494535E-05	1.486283E-05
-1.104948E-05	-2.07713E-06	-3.972958E-06	-7.327484E-06	-1.472223E-05	-1.070327E-05	-1.310093E-06	-1.549273E-05	1.708658E-06	3.033699E-06	-2.587886E-05	-1.779123E-05	7.221113E-06	4.936287E-06	1.494535E-05	1.486283E-05
-1.194503E-05	-3.640332E-06	-5.072838E-06	-6.635303E-06	-1.44499E-05	-1.092194E-05	-8.415377E-07	-1.602465E-05	8.883732E-07	2.933688E-06	-2.681595E-05	-1.845356E-05	8.188741E-06	5.164234E-06	1.376501E-05	1.557875E-05
-1.194503E-05	-3.640332E-06	-5.072838E-06	-6.635303E-06	-1.44499E-05	-1.092194E-05	-8.415377E-07	-1.602465E-05	8.883732E-07	2.933688E-06	-2.681595E-05	-1.845356E-05	8.188741E-06	5.164234E-06	1.376501E-05	1.557875E-05
-1.303593E-05	-4.846035E-06	-5.713872E-06	-6.185411E-06	-1.509242E-05	-9.778571E-06	-1.392519E-07	-1.54962E-05	-1.871029E-06	3.257161E-06	-2.846428E-05	-1.878075E-05	1.00947E-05	5.230634E-06	1.165534E-05	1.570984E-05
-1.303593E-05	-4.846035E-06	-5.713872E-06	-6.185411E-06	-1.509242E-05	-9.778571E-06	-1.392519E-07	-1.54962E-05	-1.871029E-06	3.257161E-06	-2.846428E-05	-1.878075E-05	1.00947E-05	5.230634E-06	1.165534E-05	1.570984E-05
-1.325275E-05	-5.305359E-06	-5.973649E-06	-5.319772E-06	-1.650686E-05	-8.733878E-06	1.083579E-06	-1.323976E-05	-4.371916E-06	2.941399E-06	-2.934232E-05	-1.838138E-05	9.985362E-06	6.185768E-06	1.042693E-05	1.602768E-05
-1.325275E-05	-5.305359E-06	-5.973649E-06	-5.319772E-06	-1.650686E-05	-8.733878E-06	1.083579E-06	-1.323976E-05	-4.371916E-06	2.941399E-06	-2.934232E-05	-1.838138E-05	9.985362E-06	6.185768E-06	1.042693E-05	1.602768E-05
-1.245241E-05	-4.837392E-06	-6.603048E-06	-3.826848E-06	-1.749271E-05	-8.837953E-06	2.407722E-06	-1.088846E-05	-3.060741E-06	3.542075E-06	-2.984231E-05	-1.811354E-05	8.01523E-06	7.725537E-06	1.020781E-05	1.627811E-05
-1.245241E-05	-4.837392E-06	-6.603048E-06	-3.826848E-06	-1.749271E-05	-8.837953E-06	2.407722E-06	-1.088846E-05	-3.060741E-06	3.542075E-06	-2.984231E-05	-1.811354E-05	8.01523E-06	7.725537E-06	1.020781E-05	1.627811E-05
-1.172679E-05	-3.627573E-06	-7.73441E-06	-2.106081E-06	-1.71704E-05	-9.471256E-06	3.094826E-06	-9.744077E-06	-3.772855E-07	5.58806E-06	-3.005672E-05	-1.783906E-05	6.661847E-06	7.381221E-06	1.011668E-05	1.470691E-05
-1.172679E-05	-3.627573E-06	-7.73441E-06	-2.106081E-06	-1.71704E-05	-9.471256E-06	3.094826E-06	-9.744077E-06	-3.772855E-07	5.58806E-06	-3.005672E-05	-1.783906E-05	6.661847E-06	7.381221E-06	1.011668E-05	1.470691E-05
-1.190804E-05	-2.580872E-06	-8.046205E-06	-5.940963E-07	-1.617302E-05	-1.000486E-05	3.094005E-06	-9.879088E-06	3.037095E-07	6.3404E-06	-2.979053E-05	-1.813018E-05	6.44386E-06	5.344032E-06	9.18046E-06	1.373568E-05
-1.190804E-05	-2.580872E-06	-8.046205E-06	-5.940963E-07	-1.617302E-05	-1.000486E-05	3.094005E-06	-9.879088E-06	3.037095E-07	6.3404E-06	-2.979053E-05	-1.813018E-05	6.44386E-06	5.344032E-06	9.18046E-06	1.373568E-05
-1.268553E-05	-2.406486E-06	-6.884949E-06	4.335514E-07	-1.572086E-05	-1.012865E-05	3.199216E-06	-1.066261E-05	-3.107955E-07	4.993019E-06	-2.91793E-05	-1.852262E-05	6.550504E-06	5.103917E-06	9.126885E-06	1.43608E-05
-1.268553E-05	-2.406486E-06	-6.884949E-06	4.335514E-07	-1.572086E-05	-1.012865E-05	3.199216E-06	-1.066261E-05	-3.107955E-07	4.993019E-06	-2.91793E-05	-1.852262E-05	6.550504E-06	5.103917E-06	9.126885E-06	1.43608E-05
-1.320881E-05	-2.708927E-06	-5.595593E-06	8.329828E-07	-1.600155E-05	-9.571285E-06	3.942276E-06	-1.166886E-05	-8.210498E-07	5.385009E-06	-2.954501E-05	-1.732462E-05	5.293639E-06	5.599358E-06	9.319915E-06	1.340791E-05
-1.320881E-05	-2.708927E-06	-5.595593E-06	8.329828E-07	-1.600155E-05	-9.571285E-06	3.942276E-06	-1.166886E-05	-8.210498E-07	5.385009E-06	-2.954501E-05	-1.732462E-05	5.293639E-06	5.599358E-06	9.319915E-06	1.340791E-05
-1.280492E-05	-2.657607E-06	-5.339032E-06	1.54828E-06	-1.611944E-05	-8.915705E-06	4.4024E-06	-1.356954E-05	3.131429E-07	5.956119E-06	-3.099314E-05	-1.725373E-05	5.701593E-06	4.914863E-06	9.158477E-06	1.083644E-05
-1.280492E-05	-2.657607E-06	-5.339032E-06	1.54828E-06	-1.611944E-05	-8.915705E-06	4.4024E-06	-1.356954E-05	3.131429E-07	5.956119E-06	-3.099314E-05	-1.725373E-05	5.701593E-06	4.914863E-06	9.158477E-06	1.083644E-05
-1.152818E-05	-1.941414E-06	-5.905445E-06	3.621881E-06	-1.515783E-05	-8.837782E-06	3.49678E-06	-1.771916E-05	1.051028E-06	6.360397E-06	-3.055399E-05	-1.925746E-05	7.402795E-06	3.996282E-06	1.039754E-05	9.800045E-06
-1.152818E-05	-1.941414E-06	-5.905445E-06	3.621881E-06	-1.515783E-05	-8.837782E-06	3.49678E-06	-1.771916E-05	1.051028E-06	6.360397E-06	-3.055399E-05	-1.925746E-05	7.402795E-06	3.996282E-06	1.039754E-05	9.800045E-06
-1.099723E-05	-1.360756E-06	-6.194005E-06	4.751157E-06	-1.358658E-05	-8.883871E-06	2.185834E-06	-2.223038E-05	7.12407E-07	7.740067E-06	-2.919108E-05	-2.040219E-05	8.418752E-06	3.651252E-06	1.067771E-05	1.160751E-05
-1.099723E-05	-1.360756E-06	-6.194005E-06	4.751157E-06	-1.358658E-05	-8.883871E-06	2.185834E-06	-2.223038E-05	7.12407E-07	7.740067E-06	-2.919108E-05	-2.040219E-05	8.418752E-06	3.651252E-06	1.067771E-05	1.160751E-05
-1.214521E-05	-1.630072E-06	-5.572521E-06	2.546533E-06	-1.269105E-05	-8.454649E-06	1.192637E-06	-2.390913E-05	3.818591E-07	6.643399E-06	-2.90094E-05	-1.967867E-05	8.094559E-06	5.90699E-06	9.464748E-06	1.50983E-05
-1.214521E-05	-1.630072E-06	-5.572521E-06	2.546533E-06	-1.269105E-05	-8.454649E-06	1.192637E-06	-2.390913E-05	3.818591E-07	6.643399E-06	-2.90094E-05	-1.967867E-05	8.094559E-06	5.90699E-06	9.464748E-06	1.50983E-05
-1.321239E-05	-2.357566E-06	-4.952044E-06	-4.293128E-07	-1.277699E-05	-7.703893E-06	-3.823171E-07	-2.429621E-05	1.100664E-07	3.824889E-06	-2.979309E-05	-1.966989E-05	7.056515E-06	7.509708E-06	8.204414E-06	1.658367E-05
-1.321239E-05	-2.357566E-06	-4.952044E-06	-4.293128E-07	-1.277699E-05	-7.703893E-06	-3.823171E-07	-2.429621E-05	1.100664E-07	3.824889E-06	-2.979309E-05	-1.966989E-05	7.056515E-06	7.509708E-06	8.204414E-06	1.658367E-05
-1.330925E-05	-3.656448E-06	-5.073547E-06	-1.376435E-06	-1.356893E-05	-7.070423E-06	-1.786879E-06	-2.524699E-05	-9.980068E-07	3.094734E-06	-3.058103E-05	-2.008828E-05	5.475597E-06	6.155179E-06	8.519797E-06	1.451295E-05
-1.330925E-05	-3.656448E-06	-5.073547E-06	-1.376435E-06	-1.356893E-05	-7.070423E-06	-1.786879E-06	-2.524699E-05	-9.980068E-07	3.094734E-06	-3.058103E-05	-2.008828E-05	5.475597E-06	6.155179E-06	8.519797E-06	1.451295E-05
-1.313369E-05	-5.556064E-06	-5.432223E-06	-1.285689E-06	-1.47704E-05	-6.667937E-06	-1.685162E-06	-2.517439E-05	-1.596453E-06	4.384088E-06	-3.11529E-05	-2.148168E-05	4.94805E-06	4.883963E-06	9.922881E-06	1.344677E-05
-1.313369E-05	-5.556064E-06	-5.432223E-06	-1.285689E-06	-1.47704E-05	-6.667937E-06	-1.685162E-06	-2.517439E-05	-1.596453E-06	4.384088E-06	-3.11529E-05	-2.148168E-05	4.94805E-06	4.883963E-06	9.922881E-06	1.344677E-05
-1.248857E-05	-6.759563E-06	-5.333975E-06	-1.84122E-06	-1.581276E-05	-6.153231E-06	-1.016783E-06	-2.342593E-05	-2.538166E-06	4.909434E-06	-3.197187E-05	-2.365233E-05	6.192327E-06	4.705107E-06	1.074402E-05	1.346952E-05
-1.248857E-05	-6.759563E-06	-5.333975E-06	-1.84122E-06	-1.581276E-05	-6.153231E-06	-1.016783E-06	-2.342593E-05	-2.538166E-06	4.909434E-06	-3.197187E-05	-2.365233E-05	6.192327E-06	4.705107E-06	1.074402E-05	1.346952E-05
-1.16914E-05	-6.897407E-06	-4.376602E-06	-3.346649E-06	-1.656644E-05	-5.331959E-06	-7.894115E-07	-2.099394E-05	-3.276262E-06	5.033321E-06	-3.232807E-05	-2.467413E-05	7.314069E-06	5.928774E-06	1.104238E-05	1.259899E-05
-1.16914E-05	-6.897407E-06	-4.376602E-06	-3.346649E-06	-1.656644E-05	-5.331959E-06	-7.894115E-07	-2.099394E-05	-3.276262E-06	5.033321E-06	-3.232807E-05	-2.467413E-05	7.314069E-06	5.928774E-06	1.104238E-05	1.259899E-05
-1.154156E-05	-6.909843E-06	-3.195609E-06	-5.331166E-06	-1.69538E-05	-4.625458E-06	-5.978159E-07	-1.839764E-05	-3.145284E-06	6.3976E-06	-3.278552E-05	-2.444307E-05	8.359015E-06	7.151093E-06	1.12333E-05	1.069202E-05
-1.154156E-05	-6.909843E-06	-3.195609E-06	-5.331166E-06	-1.69538E-05	-4.625458E-06	-5.978159E-07	-1.839764E-05	-3.145284E-06	6.3976E-06	-3.278552E-05	-2.444307E-05	8.359015E-06	7.151093E-06	1.12333E-05	1.069202E-05
-1.137386E-05	-6.940342E-06	-3.423306E-06	-7.350577E-06	-1.621541E-05	-4.74237E-06	-6.183238E-09	-1.58894E-05	-2.838363E-06	8.150431E-06	-3.272043E-05	-2.434978E-05	8.515199E-06	7.560929E-06	1.183177E-05	1.007273E-05
-1.137386E-05	-6.940342E-06	-3.423306E-06	-7.350577E-06	-1.621541E-05	-4.74237E-06	-6.183238E-09	-1.58894E-05	-2.838363E-06	8.150431E-06	-3.272043E-05	-2.434978E-05	8.515199E-06	7.560929E-06	1.183177E-05	1.007273E-05
-1.062721E-05	-6.227995E-06	-4.97316E-06	-9.570631E-06	-1.455174E-05	-5.919112E-06	3.90724E-07	-1.439717E-05	-3.536358E-06	8.060941E-06	-3.134535E-05	-2.467887E-05	8.592271E-06	7.71735E-06	1.153089E-05	1.043384E-05
-1.062721E-05	-6.227995E-06	-4.97316E-06	-9.570631E-06	-1.455174E-05	-5.919112E-06	3.90724E-07	-1.439717E-05	-3.536358E-06	8.060941E-06	-3.134535E-05	-2.467887E-05	8.592271E-06	7.71735E-06	1.153089E-05	1.043384E-05
-9.955681E-06	-4.680018E-06	-5.590804E-06	-1.240446E-05	-1.338619E-05	-7.193584E-06	-2.255429E-07	-1.439794E-05	-4.860901E-06	5.586684E-06	-3.053608E-05	-2.437014E-05	9.01816E-06	8.217083E-06	1.079216E-05	1.055109E-05
-9.955681E-06	-4.680018E-06	-5.590804E-06	-1.240446E-05	-1.338619E-05	-7.193584E-06	-2.255429E-07	-1.439794E-05	-4.860901E-06	5.586684E-06	-3.053608E-05	-2.437014E-05	9.01816E-06	8.217083E-06	1.079216E-05	1.055109E-05
-9.759392E-06	-3.440002E-06	-4.006865E-06	-1.54164E-05	-1.323692E-05	-7.018264E-06	-1.388567E-06	-1.434738E-05	-6.108203E-06	3.578347E-06	-3.161396E-05	-2.292872E-05	8.986811E-06	8.407008E-06	1.021895E-05	1.119657E-05
-9.759392E-06	-3.440002E-06	-4.006865E-06	-1.54164E-05	-1.323692E-05	-7.018264E-06	-1.388567E-06	-1.434738E-05	-6.108203E-06	3.578347E-06	-3.161396E-05	-2.292872E-05	8.986811E-06	8.407008E-06	1.021895E-05	1.119657E-05
-9.874617E-06	-2.88868E-06	-1.415344E-06	-1.742611E-05	-1.348735E-05	-5.68124E-06	-2.415794E-06	-1.270708E-05	-6.628532E-06	3.111024E-06	-3.313029E-05	-2.163669E-05	7.39767E-06	8.091809E-06	1.024983E-05	1.22951E-05
-9.874617E-06	-2.88868E-06	-1.415344E-06	-1.742611E-05	-1.348735E-05	-5.68124E-06	-2.415794E-06	-1.270708E-05	-6.628532E-06	3.111024E-06	-3.313029E-05	-2.163669E-05	7.39767E-06	8.091809E-06	1.024983E-05	1.22951E-05
-1.026226E-05	-2.108094E-06	1.435236E-07	-1.779351E-05	-1.361943E-05	-5.153776E-06	-3.523678E-06	-1.01551E-05	-5.68348E-06	3.222251E-06	-3.450022E-05	-2.098534E-05	5.850129E-06	8.336505E-06	1.004389E-05	1.358416E-05
-1.026226E-05	-2.108094E-06	1.435236E-07	-1.779351E-05	-1.361943E-05	-5.153776E-06	-3.523678E-06	-1.01551E-05	-5.68348E-06	3.222251E-06	-3.450022E-05	-2.098534E-05	5.850129E-06	8.336505E-06	1.004389E-05	1.358416E-05
-1.102105E-05	-1.29726E-06	8.606268E-08	-1.71872E-05	-1.366625E-05	-5.752281E-06	-4.614723E-06	-8.449011E-06	-4.805993E-06	3.73848E-06	-3.59369E-05	-2.074272E-05	5.391831E-06	9.207659E-06	9.102067E-06	1.50036E-05
-1.102105E-05	-1.29726E-06	8.606268E-08	-1.71872E-05	-1.366625E-05	-5.752281E-06	-4.614723E-06	-8.449011E-06	-4.805993E-06	3.73848E-06	-3.59369E-05	-2.074272E-05	5.391831E-06	9.207659E-06	9.102067E-06	1.50036E-05
-1.169244E-05	-1.42567E-06	-7.947277E-07	-1.624617E-05	-1.384378E-05	-6.428999E-06	-5.092385E-06	-8.316714E-06	-3.958645E-06	4.082312E-06	-3.622838E-05	-2.120678E-05	6.362644E-06	9.258143E-06	7.313767E-06	1.574747E-05
-1.169244E-05	-1.42567E-06	-7.947277E-07	-1.624617E-05	-1.384378E-05	-6.428999E-06	-5.092385E-06	-8.316714E-06	-3.958645E-06	4.082312E-06	-3.622838E-05	-2.120678E-05	6.362644E-06	9.258143E-06	7.313767E-06	1.574747E-05
-1.139804E-05	-2.371968E-06	-1.828528E-06	-1.444839E-05	-1.417906E-05	-6.979682E-06	-4.832578E-06	-8.791585E-06	-2.396697E-06	3.883599E-06	-3.528945E-05	-2.12206E-05	7.92103E-06	8.406244E-06	5.524459E-06	1.500152E-05
-1.139804E-05	-2.371968E-06	-1.828528E-06	-1.444839E-05	-1.417906E-05	-6.979682E-06	-4.832578E-06	-8.791585E-06	-2.396697E-06	3.883599E-06	-3.528945E-05	-2.12206E-05	7.92103E-06	8.406244E-06	5.524459E-06	1.500152E-05
-1.042129E-05	-3.453418E-06	-2.559357E-06	-1.215718E-05	-1.467164E-05	-7.253077E-06	-4.344987E-06	-8.518992E-06	-3.357941E-07	3.839572E-06	-3.372668E-05	-2.017793E-05	8.000092E-06	7.89448E-06	4.498504E-06	1.388893E-05
-1.042129E-05	-3.453418E-06	-2.559357E-06	-1.215718E-05	-1.467164E-05	-7.253077E-06	-4.344987E-06	-8.518992E-06	-3.357941E-07	3.839572E-06	-3.372668E-05	-2.017793E-05	8.000092E-06	7.89448E-06	4.498504E-06	1.388893E-05
-9.919384E-06	-4.078542E-06	-2.716665E-06	-1.050887E-05	-1.527113E-05	-6.844935E-06	-4.239057E-06	-7.319856E-06	1.93907E-06	4.102858E-06	-3.221523E-05	-1.918301E-05	7.113425E-06	7.585986E-06	4.541544E-06	1.265527E-05
-9.919384E-06	-4.078542E-06	-2.716665E-06	-1.050887E-05	-1.527113E-05	-6.844935E-06	-4.239057E-06	-7.319856E-06	1.93907E-06	4.102858E-06	-3.221523E-05	-1.918301E-05	7.113425E-06	7.585986E-06	4.541544E-06	1.265527E-05
-1.006019E-05	-3.932243E-06	-2.590534E-06	-8.88372E-06	-1.559352E-05	-6.046138E-06	-4.511312E-06	-6.20831E-06	5.39526E-06	4.902138E-06	-3.136132E-05	-1.909909E-05	6.489942E-06	6.652118E-06	6.030496E-06	1.240684E-05
-1.006019E-05	-3.932243E-06	-2.590534E-06	-8.88372E-06	-1.559352E-05	-6.046138E-06	-4.511312E-06	-6.20831E-06	5.39526E-06	4.902138E-06	-3.136132E-05	-1.909909E-05	6.489942E-06	6.652118E-06	6.030496E-06	1.240684E-05
-1.025996E-05	-3.487753E-06	-2.602955E-06	-6.713801E-06	-1.491423E-05	-5.505951E-06	-4.496433E-06	-5.851472E-06	6.887618E-06	5.295918E-06	-3.107675E-05	-1.910594E-05	6.289866E-06	6.242984E-06	7.237E-06	1.185853E-05
-1.025996E-05	-3.487753E-06	-2.602955E-06	-6.713801E-06	-1.491423E-05	-5.505951E-06	-4.496433E-06	-5.851472E-06	6.887618E-06	5.295918E-06	-3.107675E-05	-1.910594E-05	6.289866E-06	6.242984E-06	7.237E-06	1.185853E-05
-1.017678E-05	-3.413926E-06	-2.841525E-06	-5.546784E-06	-1.338338E-05	-5.644704E-06	-3.80856E-06	-6.301297E-06	5.066468E-06	3.724357E-06	-3.139558E-05	-1.873201E-05	6.530579E-06	5.407423E-06	7.511598E-06	1.088068E-05
-1.017678E-05	-3.413926E-06	-2.841525E-06	-5.546784E-06	-1.338338E-05	-5.644704E-06	-3.80856E-06	-6.301297E-06	5.066468E-06	3.724357E-06	-3.139558E-05	-1.873201E-05	6.530579E-06	5.407423E-06	7.511598E-06	1.088068E-05
-9.764773E-06	-3.482199E-06	-3.193539E-06	-6.92112E-06	-1.294789E-05	-6.545445E-06	-3.065052E-06	-8.059019E-06	2.497683E-06	2.059832E-06	-3.268249E-05	-1.803238E-05	6.994773E-06	5.127146E-06	7.280194E-06	1.05955E-05
-9.764773E-06	-3.482199E-06	-3.193539E-06	-6.92112E-06	-1.294789E-05	-6.545445E-06	-3.065052E-06	-8.059019E-06	2.497683E-06	2.059832E-06	-3.268249E-05	-1.803238E-05	6.994773E-06	5.127146E-06	7.280194E-06	1.05955E-05
-9.457594E-06	-3.200775E-06	-3.378044E-06	-1.018493E-05	-1.41651E-05	-7.667109E-06	-2.998136E-06	-1.00945E-05	1.195518E-06	4.130627E-06	-3.361485E-05	-1.67888E-05	7.756109E-06	6.279909E-06	7.662136E-06	1.047444E-05
-9.457594E-06	-3.200775E-06	-3.378044E-06	-1.018493E-05	-1.41651E-05	-7.667109E-06	-2.998136E-06	-1.00945E-05	1.195518E-06	4.130627E-06	-3.361485E-05	-1.67888E-05	7.756109E-06	6.279909E-06	7.662136E-06	1.047444E-05
-9.801679E-06	-2.739729E-06	-3.134517E-06	-1.316121E-05	-1.478356E-05	-8.213866E-06	-3.425934E-06	-9.885548E-06	5.334138E-07	5.183898E-06	-3.197358E-05	-1.694243E-05	8.003354E-06	6.779609E-06	9.951899E-06	9.409379E-06
-9.801679E-06	-2.739729E-06	-3.134517E-06	-1.316121E-05	-1.478356E-05	-8.213866E-06	-3.425934E-06	-9.885548E-06	5.334138E-07	5.183898E-06	-3.197358E-05	-1.694243E-05	8.003354E-06	6.779609E-06	9.951899E-06	9.409379E-06
-1.089248E-05	-1.956014E-06	-2.953102E-06	-1.370484E-05	-1.416911E-05	-8.209472E-06	-3.910788E-06	-7.558671E-06	-9.578356E-07	3.167655E-06	-2.921198E-05	-1.901292E-05	7.791567E-06	6.389437E-06	1.249546E-05	8.796645E-06
-1.089248E-05	-1.956014E-06	-2.953102E-06	-1.370484E-05	-1.416911E-05	-8.209472E-06	-3.910788E-06	-7.558671E-06	-9.578356E-07	3.167655E-06	-2.921198E-05	-1.901292E-05	7.791567E-06	6.389437E-06	1.249546E-05	8.796645E-06
-1.266426E-05	-6.074104E-07	-3.343682E-06	-1.081607E-05	-1.379289E-05	-8.26469E-06	-4.429353E-06	-4.945551E-06	-3.846743E-06	2.648058E-06	-2.916764E-05	-2.059469E-05	7.140925E-06	6.893956E-06	1.321957E-05	9.66758E-06
-1.266426E-05	-6.074104E-07	-3.343682E-06	-1.081607E-05	-1.379289E-05	-8.26469E-06	-4.429353E-06	-4.945551E-06	-3.846743E-06	2.648058E-06	-2.916764E-05	-2.059469E-05	7.140925E-06	6.893956E-06	1.321957E-05	9.66758E-06
-1.406145E-05	-3.01572E-07	-3.440564E-06	-6.679376E-06	-1.423378E-05	-8.421234E-06	-4.8306E-06	-3.640131E-06	-4.915525E-06	2.97026E-06	-3.086287E-05	-2.029539E-05	6.967434E-06	8.510744E-06	1.273963E-05	1.016492E-05
-1.406145E-05	-3.01572E-07	-3.440564E-06	-6.679376E-06	-1.423378E-05	-8.421234E-06	-4.8306E-06	-3.640131E-06	-4.915525E-06	2.97026E-06	-3.086287E-05	-2.029539E-05	6.967434E-06	8.510744E-06	1.273963E-05	1.016492E-05
-1.374046E-05	-1.717628E-06	-2.843538E-06	-4.345676E-06	-1.542341E-05	-8.040695E-06	-4.796826E-06	-4.590877E-06	-3.373277E-06	3.572966E-06	-3.058237E-05	-1.783091E-05	8.676346E-06	7.747587E-06	1.30195E-05	1.051583E-05
-1.374046E-05	-1.717628E-06	-2.843538E-06	-4.345676E-06	-1.542341E-05	-8.040695E-06	-4.796826E-06	-4.590877E-06	-3.373277E-06	3.572966E-06	-3.058237E-05	-1.783091E-05	8.676346E-06	7.747587E-06	1.30195E-05	1.051583E-05
-1.263265E-05	-2.544387E-06	-2.598486E-06	-3.705395E-06	-1.686411E-05	-6.839424E-06	-4.640905E-06	-6.054756E-06	-2.559902E-06	3.211345E-06	-2.930248E-05	-1.669581E-05	8.536763E-06	6.755941E-06	1.43682E-05	1.156942E-05
-1.263265E-05	-2.544387E-06	-2.598486E-06	-3.705395E-06	-1.686411E-05	-6.839424E-06	-4.640905E-06	-6.054756E-06	-2.559902E-06	3.211345E-06	-2.930248E-05	-1.669581E-05	8.536763E-06	6.755941E-06	1.43682E-05	1.156942E-05
-1.215404E-05	-2.393343E-06	-2.591982E-06	-4.599714E-06	-1.767152E-05	-5.628097E-06	-4.842918E-06	-6.573327E-06	-3.256228E-06	2.97621E-06	-2.831113E-05	-1.684531E-05	7.98694E-06	6.52532E-06	1.460605E-05	1.20112E-05
-1.215404E-05	-2.393343E-06	-2.591982E-06	-4.599714E-06	-1.767152E-05	-5.628097E-06	-4.842918E-06	-6.573327E-06	-3.256228E-06	2.97621E-06	-2.831113E-05	-1.684531E-05	7.98694E-06	6.52532E-06	1.460605E-05	1.20112E-05
-1.220243E-05	-2.679688E-06	-2.066826E-06	-7.384652E-06	-1.779002E-05	-5.172893E-06	-4.781272E-06	-6.716848E-06	-4.462768E-06	1.704012E-06	-2.786439E-05	-1.868943E-05	7.904197E-06	7.001151E-06	1.415199E-05	1.18423E-05
-1.220243E-05	-2.679688E-06	-2.066826E-06	-7.384652E-06	-1.779002E-05	-5.172893E-06	-4.781272E-06	-6.716848E-06	-4.462768E-06	1.704012E-06	-2.786439E-05	-1.868943E-05	7.904197E-06	7.001151E-06	1.415199E-05	1.18423E-05
-1.263224E-05	-2.827216E-06	-1.566055E-06	-1.01037E-05	-1.760885E-05	-5.098917E-06	-3.526098E-06	-6.235847E-06	-4.274942E-06	1.406041E-06	-2.821918E-05	-1.965664E-05	8.082753E-06	6.730168E-06	1.421348E-05	1.112493E-05
-1.263224E-05	-2.827216E-06	-1.566055E-06	-1.01037E-05	-1.760885E-05	-5.098917E-06	-3.526098E-06	-6.235847E-06	-4.274942E-06	1.406041E-06	-2.821918E-05	-1.965664E-05	8.082753E-06	6.730168E-06	1.421348E-05	1.112493E-05
-1.329146E-05	-2.589271E-06	-1.53343E-06	-1.157436E-05	-1.686818E-05	-4.79089E-06	-1.764279E-06	-5.519124E-06	-2.154713E-06	2.292978E-06	-2.97753E-05	-1.960376E-05	7.253894E-06	5.176549E-06	1.49958E-05	1.005503E-05
-1.329146E-05	-2.589271E-06	-1.53343E-06	-1.157436E-05	-1.686818E-05	-4.79089E-06	-1.764279E-06	-5.519124E-06	-2.154713E-06	2.292978E-06	-2.97753E-05	-1.960376E-05	7.253894E-06	5.176549E-06	1.49958E-05	1.005503E-05
-1.365868E-05	-2.784758E-06	-2.177971E-06	-1.218681E-05	-1.57228E-05	-4.610592E-06	-1.156627E-06	-5.658684E-06	-5.559281E-07	2.263549E-06	-3.158958E-05	-1.754191E-05	6.051901E-06	5.300881E-06	1.584129E-05	9.486057E-06
-1.365868E-05	-2.784758E-06	-2.177971E-06	-1.218681E-05	-1.57228E-05	-4.610592E-06	-1.156627E-06	-5.658684E-06	-5.559281E-07	2.263549E-06	-3.158958E-05	-1.754191E-05	6.051901E-06	5.300881E-06	1.584129E-05	9.486057E-06
-1.370926E-05	-3.21581E-06	-4.030249E-06	-1.129953E-05	-1.535828E-05	-5.581753E-06	-2.123733E-06	-5.874797E-06	6.221736E-09	2.772378E-06	-3.111048E-05	-1.583079E-05	5.588203E-06	6.632742E-06	1.640824E-05	1.01661E-05
-1.370926E-05	-3.21581E-06	-4.030249E-06	-1.129953E-05	-1.535828E-05	-5.581753E-06	-2.123733E-06	-5.874797E-06	6.221736E-09	2.772378E-06	-3.111048E-05	-1.583079E-05	5.588203E-06	6.632742E-06	1.640824E-05	1.01661E-05
-1.369678E-05	-3.902443E-06	-5.624629E-06	-9.013262E-06	-1.590422E-05	-7.394958E-06	-3.218479E-06	-5.62739E-06	1.426568E-08	2.826406E-06	-3.003764E-05	-1.80691E-05	5.291467E-06	6.802194E-06	1.651172E-05	1.135066E-05
-1.369678E-05	-3.902443E-06	-5.624629E-06	-9.013262E-06	-1.590422E-05	-7.394958E-06	-3.218479E-06	-5.62739E-06	1.426568E-08	2.826406E-06	-3.003764E-05	-1.80691E-05	5.291467E-06	6.802194E-06	1.651172E-05	1.135066E-05
-1.357945E-05	-5.000679E-06	-5.044973E-06	-7.586214E-06	-1.635665E-05	-8.439568E-06	-2.972454E-06	-5.305048E-06	-1.891065E-07	1.576023E-06	-3.002187E-05	-2.124914E-05	5.773896E-06	4.836049E-06	1.695294E-05	9.811641E-06
-1.357945E-05	-5.000679E-06	-5.044973E-06	-7.586214E-06	-1.635665E-05	-8.439568E-06	-2.972454E-06	-5.305048E-06	-1.891065E-07	1.576023E-06	-3.002187E-05	-2.124914E-05	5.773896E-06	4.836049E-06	1.695294E-05	9.811641E-06
-1.334281E-05	-5.066411E-06	-4.040273E-06	-9.337222E-06	-1.66772E-05	-8.210714E-06	-1.949701E-06	-3.908145E-06	1.501583E-07	7.007985E-07	-3.068559E-05	-2.035537E-05	6.333048E-06	2.312326E-06	1.817496E-05	8.362812E-06
-1.334281E-05	-5.066411E-06	-4.040273E-06	-9.337222E-06	-1.66772E-05	-8.210714E-06	-1.949701E-06	-3.908145E-06	1.501583E-07	7.007985E-07	-3.068559E-05	-2.035537E-05	6.333048E-06	2.312326E-06	1.817496E-05	8.362812E-06
-1.330546E-05	-3.480554E-06	-4.683202E-06	-1.501192E-05	-1.731372E-05	-7.283311E-06	-1.294693E-06	-1.409663E-06	8.950048E-07	9.605224E-07	-3.055957E-05	-1.590207E-05	7.786514E-06	1.580787E-06	1.956794E-05	9.717635E-06
-1.330546E-05	-3.480554E-06	-4.683202E-06	-1.501192E-05	-1.731372E-05	-7.283311E-06	-1.294693E-06	-1.409663E-06	8.950048E-07	9.605224E-07	-3.055957E-05	-1.590207E-05	7.786514E-06	1.580787E-06	1.956794E-05	9.717635E-06
-1.3808E-05	-1.795712E-06	-5.775777E-06	-2.285248E-05	-1.823338E-05	-6.308568E-06	-1.098653E-06	-1.8731E-07	2.282145E-06	3.097036E-07	-2.958319E-05	-1.349275E-05	8.855786E-06	3.008345E-06	2.023397E-05	1.340361E-05
-1.3808E-05	-1.795712E-06	-5.775777E-06	-2.285248E-05	-1.823338E-05	-6.308568E-06	-1.098653E-06	-1.8731E-07	2.282145E-06	3.097036E-07	-2.958319E-05	-1.349275E-05	8.855786E-06	3.008345E-06	2.023397E-05	1.340361E-05
-1.472821E-05	-8.463139E-07	-5.823407E-06	-2.849572E-05	-1.942396E-05	-6.257325E-06	-1.51641E-06	-1.294825E-06	3.115319E-06	-9.953811E-08	-2.903903E-05	-1.383495E-05	8.80351E-06	4.832267E-06	2.050174E-05	1.635856E-05
-1.472821E-05	-8.463139E-07	-5.823407E-06	-2.849572E-05	-1.942396E-05	-6.257325E-06	-1.51641E-06	-1.294825E-06	3.115319E-06	-9.953811E-08	-2.903903E-05	-1.383495E-05	8.80351E-06	4.832267E-06	2.050174E-05	1.635856E-05
-1.569689E-05	-8.450174E-07	-4.824451E-06	-2.829846E-05	-2.034998E-05	-7.33979E-06	-2.761713E-06	-3.974389E-06	1.755057E-06	6.328709E-07	-2.903569E-05	-1.47803E-05	7.85241E-06	5.875035E-06	2.066906E-05	1.685338E-05
-1.569689E-05	-8.450174E-07	-4.824451E-06	-2.829846E-05	-2.034998E-05	-7.33979E-06	-2.761713E-06	-3.974389E-06	1.755057E-06	6.328709E-07	-2.903569E-05	-1.47803E-05	7.85241E-06	5.875035E-06	2.066906E-05	1.685338E-05
-1.642176E-05	-2.540319E-06	-3.403749E-06	-2.296755E-05	-1.987538E-05	-8.166148E-06	-4.252892E-06	-7.76442E-06	-1.218997E-07	1.216889E-06	-2.913683E-05	-1.475719E-05	8.237767E-06	5.488176E-06	2.151846E-05	1.554563E-05
-1.642176E-05	-2.540319E-06	-3.403749E-06	-2.296755E-05	-1.987538E-05	-8.166148E-06	-4.252892E-06	-7.76442E-06	-1.218997E-07	1.216889E-06	-2.913683E-05	-1.475719E-05	8.237767E-06	5.488176E-06	2.151846E-05	1.554563E-05
-1.637274E-05	-5.01158E-06	-2.376399E-06	-1.697043E-05	-1.820453E-05	-7.561066E-06	-5.08271E-06	-1.174497E-05	6.016568E-07	1.308898E-06	-2.9436E-05	-1.4788E-05	9.816319E-06	4.102319E-06	2.255834E-05	1.437025E-05
-1.637274E-05	-5.01158E-06	-2.376399E-06	-1.697043E-05	-1.820453E-05	-7.561066E-06	-5.08271E-06	-1.174497E-05	6.016568E-07	1.308898E-06	-2.9436E-05	-1.4788E-05	9.816319E-06	4.102319E-06	2.255834E-05	1.437025E-05
-1.534347E-05	-6.13974E-06	-2.195951E-06	-1.435853E-05	-1.6706E-05	-6.121344E-06	-4.696446E-06	-1.441705E-05	3.291268E-06	2.05636E-06	-3.008018E-05	-1.445234E-05	1.089733E-05	2.87589E-06	2.252757E-05	1.487043E-05
-1.534347E-05	-6.13974E-06	-2.195951E-06	-1.435853E-05	-1.6706E-05	-6.121344E-06	-4.696446E-06	-1.441705E-05	3.291268E-06	2.05636E-06	-3.008018E-05	-1.445234E-05	1.089733E-05	2.87589E-06	2.252757E-05	1.487043E-05
-1.415329E-05	-5.693625E-06	-2.666314E-06	-1.49981E-05	-1.583444E-05	-5.447795E-06	-3.332784E-06	-1.547033E-05	5.003165E-06	2.853365E-06	-3.145269E-05	-1.32975E-05	1.073328E-05	3.709446E-06	2.007511E-05	1.586346E-05
-1.415329E-05	-5.693625E-06	-2.666314E-06	-1.49981E-05	-1.583444E-05	-5.447795E-06	-3.332784E-06	-1.547033E-05	5.003165E-06	2.853365E-06	-3.145269E-05	-1.32975E-05	1.073328E-05	3.709446E-06	2.007511E-05	1.586346E-05
-1.338648E-05	-4.848169E-06	-3.575052E-06	-1.607532E-05	-1.555855E-05	-6.140018E-06	-2.201976E-06	-1.592134E-05	4.829538E-06	3.107627E-06	-3.255068E-05	-1.245985E-05	9.601026E-06	3.987355E-06	1.595199E-05	1.575613E-05
-1.338648E-05	-4.848169E-06	-3.575052E-06	-1.607532E-05	-1.555855E-05	-6.140018E-06	-2.201976E-06	-1.592134E-05	4.829538E-06	3.107627E-06	-3.255068E-05	-1.245985E-05	9.601026E-06	3.987355E-06	1.595199E-05	1.575613E-05
-1.286651E-05	-4.39038E-06	-4.740993E-06	-1.590204E-05	-1.609797E-05	-7.201528E-06	-2.578067E-06	-1.658133E-05	4.720731E-06	2.477039E-06	-3.304965E-05	-1.459705E-05	7.635545E-06	3.542606E-06	1.333634E-05	1.439944E-05
-1.286651E-05	-4.39038E-06	-4.740993E-06	-1.590204E-05	-1.609797E-05	-7.201528E-06	-2.578067E-06	-1.658133E-05	4.720731E-06	2.477039E-06	-3.304965E-05	-1.459705E-05	7.635545E-06	3.542606E-06	1.333634E-05	1.439944E-05
-1.282628E-05	-4.558995E-06	-5.449444E-06	-1.468871E-05	-1.708318E-05	-7.545697E-06	-4.405966E-06	-1.707648E-05	5.782058E-06	1.84538E-06	-3.260594E-05	-1.75446E-05	6.966014E-06	2.412636E-06	1.258469E-05	1.468701E-05
-1.282628E-05	-4.558995E-06	-5.449444E-06	-1.468871E-05	-1.708318E-05	-7.545697E-06	-4.405966E-06	-1.707648E-05	5.782058E-06	1.84538E-06	-3.260594E-05	-1.75446E-05	6.966014E-06	2.412636E-06	1.258469E-05	1.468701E-05
-1.343559E-05	-5.043275E-06	-5.675512E-06	-1.334424E-05	-1.795685E-05	-6.794516E-06	-6.179775E-06	-1.645599E-05	6.430752E-06	1.439668E-06	-3.13925E-05	-1.956152E-05	8.518641E-06	1.729903E-06	1.336792E-05	1.653591E-05
-1.343559E-05	-5.043275E-06	-5.675512E-06	-1.334424E-05	-1.795685E-05	-6.794516E-06	-6.179775E-06	-1.645599E-05	6.430752E-06	1.439668E-06	-3.13925E-05	-1.956152E-05	8.518641E-06	1.729903E-06	1.336792E-05	1.653591E-05
-1.406602E-05	-5.26113E-06	-6.450892E-06	-1.248516E-05	-1.871766E-05	-5.273025E-06	-6.555696E-06	-1.457519E-05	4.151544E-06	3.214206E-07	-3.138159E-05	-1.861568E-05	9.841162E-06	2.87477E-06	1.504039E-05	1.762608E-05
-1.406602E-05	-5.26113E-06	-6.450892E-06	-1.248516E-05	-1.871766E-05	-5.273025E-06	-6.555696E-06	-1.457519E-05	4.151544E-06	3.214206E-07	-3.138159E-05	-1.861568E-05	9.841162E-06	2.87477E-06	1.504039E-05	1.762608E-05
-1.426382E-05	-5.184521E-06	-7.97387E-06	-1.224473E-05	-1.918132E-05	-4.793936E-06	-5.198812E-06	-1.240559E-05	7.400655E-07	3.994739E-08	-3.139526E-05	-1.6464E-05	1.024541E-05	3.703667E-06	1.662006E-05	1.776304E-05
-1.426382E-05	-5.184521E-06	-7.97387E-06	-1.224473E-05	-1.918132E-05	-4.793936E-06	-5.198812E-06	-1.240559E-05	7.400655E-07	3.994739E-08	-3.139526E-05	-1.6464E-05	1.024541E-05	3.703667E-06	1.662006E-05	1.776304E-05
-1.417947E-05	-4.911512E-06	-9.464734E-06	-1.275902E-05	-1.86223E-05	-6.665547E-06	-2.262274E-06	-1.092591E-05	1.824423E-06	1.102026E-06	-3.137939E-05	-1.530062E-05	1.050761E-05	5.369064E-06	1.689406E-05	1.823393E-05
-1.417947E-05	-4.911512E-06	-9.464734E-06	-1.275902E-05	-1.86223E-05	-6.665547E-06	-2.262274E-06	-1.092591E-05	1.824423E-06	1.102026E-06	-3.137939E-05	-1.530062E-05	1.050761E-05	5.369064E-06	1.689406E-05	1.823393E-05
-1.402858E-05	-4.098466E-06	-9.434481E-06	-1.437119E-05	-1.682492E-05	-8.12913E-06	1.858986E-07	-1.11766E-05	3.920685E-06	1.204488E-06	-3.325806E-05	-1.608115E-05	1.035488E-05	6.160792E-06	1.765166E-05	1.83273E-05
-1.402858E-05	-4.098466E-06	-9.434481E-06	-1.437119E-05	-1.682492E-05	-8.12913E-06	1.858986E-07	-1.11766E-05	3.920685E-06	1.204488E-06	-3.325806E-05	-1.608115E-05	1.035488E-05	6.160792E-06	1.765166E-05	1.83273E-05
-1.350597E-05	-3.526923E-06	-7.36944E-06	-1.650427E-05	-1.522541E-05	-6.877801E-06	-1.054005E-07	-1.354922E-05	1.663604E-06	1.01783E-06	-3.473483E-05	-1.740372E-05	9.142908E-06	5.941453E-06	1.721478E-05	1.85259E-05
-1.350597E-05	-3.526923E-06	-7.36944E-06	-1.650427E-05	-1.522541E-05	-6.877801E-06	-1.054005E-07	-1.354922E-05	1.663604E-06	1.01783E-06	-3.473483E-05	-1.740372E-05	9.142908E-06	5.941453E-06	1.721478E-05	1.85259E-05
-1.231316E-05	-4.39068E-06	-5.540292E-06	-1.764043E-05	-1.532096E-05	-5.502052E-06	-1.402478E-06	-1.573338E-05	-6.633518E-07	1.632224E-06	-3.354638E-05	-1.790242E-05	7.856977E-06	5.861305E-06	1.608664E-05	1.91708E-05
-1.231316E-05	-4.39068E-06	-5.540292E-06	-1.764043E-05	-1.532096E-05	-5.502052E-06	-1.402478E-06	-1.573338E-05	-6.633518E-07	1.632224E-06	-3.354638E-05	-1.790242E-05	7.856977E-06	5.861305E-06	1.608664E-05	1.91708E-05
-1.132941E-05	-5.468243E-06	-5.169654E-06	-1.712371E-05	-1.613412E-05	-5.709627E-06	-1.71872E-06	-1.534565E-05	-5.545344E-07	2.251134E-06	-3.330308E-05	-1.773122E-05	7.25806E-06	6.34802E-06	1.737956E-05	1.908385E-05
