-1.250173E-05	-2.481005E-06	-2.593698E-06	-1.605146E-05	-1.52248E-05	-9.554419E-06	-3.606116E-06	-1.248095E-05	-5.386583E-06	3.071967E-06	-3.183398E-05	-1.941109E-05	9.212387E-06	9.128362E-06	1.368764E-05	1.338135E-05
-1.250173E-05	-2.481005E-06	-2.593698E-06	-1.605146E-05	-1.52248E-05	-9.554419E-06	-3.606116E-06	-1.248095E-05	-5.386583E-06	3.071967E-06	-3.183398E-05	-1.941109E-05	9.212387E-06	9.128362E-06	1.368764E-05	1.338135E-05
-1.160316E-05	-2.133058E-06	-3.85194E-06	-1.558097E-05	-1.463448E-05	-8.202197E-06	-1.091144E-07	-1.347835E-05	-5.321431E-06	4.393554E-06	-3.190974E-05	-1.93536E-05	9.245809E-06	8.072292E-06	1.075196E-05	1.404949E-05
-1.160316E-05	-2.133058E-06	-3.85194E-06	-1.558097E-05	-1.463448E-05	-8.202197E-06	-1.091144E-07	-1.347835E-05	-5.321431E-06	4.393554E-06	-3.190974E-05	-1.93536E-05	9.245809E-06	8.072292E-06	1.075196E-05	1.404949E-05
-1.15016E-05	-2.276443E-06	-5.085291E-06	-1.508158E-05	-1.490775E-05	-7.651323E-06	2.258876E-06	-1.571768E-05	-6.244239E-06	4.86747E-06	-3.27012E-05	-2.035522E-05	9.488158E-06	6.286523E-06	9.130318E-06	1.276224E-05
-1.15016E-05	-2.276443E-06	-5.085291E-06	-1.508158E-05	-1.490775E-05	-7.651323E-06	2.258876E-06	-1.571768E-05	-6.244239E-06	4.86747E-06	-3.27012E-05	-2.035522E-05	9.488158E-06	6.286523E-06	9.130318E-06	1.276224E-05
-1.236832E-05	-2.922768E-06	-5.291554E-06	-1.412474E-05	-1.605899E-05	-7.973748E-06	1.086944E-06	-1.676963E-05	-6.77081E-06	3.948724E-06	-3.309388E-05	-2.089697E-05	9.35188E-06	7.781933E-06	1.091919E-05	1.278794E-05
-1.236832E-05	-2.922768E-06	-5.291554E-06	-1.412474E-05	-1.605899E-05	-7.973748E-06	1.086944E-06	-1.676963E-05	-6.77081E-06	3.948724E-06	-3.309388E-05	-2.089697E-05	9.35188E-06	7.781933E-06	1.091919E-05	1.278794E-05
-1.230284E-05	-3.007463E-06	-5.154101E-06	-1.321042E-05	-1.686383E-05	-8.161898E-06	-8.181979E-08	-1.644864E-05	-6.336181E-06	2.505562E-06	-3.317042E-05	-2.06235E-05	8.191837E-06	9.851737E-06	1.228412E-05	1.276536E-05
-1.230284E-05	-3.007463E-06	-5.154101E-06	-1.321042E-05	-1.686383E-05	-8.161898E-06	-8.181979E-08	-1.644864E-05	-6.336181E-06	2.505562E-06	-3.317042E-05	-2.06235E-05	8.191837E-06	9.851737E-06	1.228412E-05	1.276536E-05
-1.078538E-05	-2.260365E-06	-4.806699E-06	-1.368959E-05	-1.662661E-05	-6.99209E-06	6.050022E-07	-1.530093E-05	-3.553678E-06	1.894025E-06	-3.254003E-05	-2.090291E-05	7.240751E-06	1.096792E-05	1.404907E-05	1.178043E-05
-1.078538E-05	-2.260365E-06	-4.806699E-06	-1.368959E-05	-1.662661E-05	-6.99209E-06	6.050022E-07	-1.530093E-05	-3.553678E-06	1.894025E-06	-3.254003E-05	-2.090291E-05	7.240751E-06	1.096792E-05	1.404907E-05	1.178043E-05
-9.591003E-06	-1.882175E-06	-4.043151E-06	-1.611825E-05	-1.593446E-05	-5.425901E-06	1.220461E-06	-1.352777E-05	-1.246723E-06	2.203709E-06	-3.216646E-05	-2.022144E-05	7.380043E-06	1.04084E-05	1.560007E-05	1.160311E-05
-9.591003E-06	-1.882175E-06	-4.043151E-06	-1.611825E-05	-1.593446E-05	-5.425901E-06	1.220461E-06	-1.352777E-05	-1.246723E-06	2.203709E-06	-3.216646E-05	-2.022144E-05	7.380043E-06	1.04084E-05	1.560007E-05	1.160311E-05
-9.64385E-06	-2.370227E-06	-4.001959E-06	-1.895184E-05	-1.532965E-05	-5.03501E-06	2.106737E-06	-1.167737E-05	5.611363E-07	3.106163E-06	-3.183464E-05	-1.863556E-05	7.798179E-06	9.34136E-06	1.540773E-05	1.198375E-05
-9.64385E-06	-2.370227E-06	-4.001959E-06	-1.895184E-05	-1.532965E-05	-5.03501E-06	2.106737E-06	-1.167737E-05	5.611363E-07	3.106163E-06	-3.183464E-05	-1.863556E-05	7.798179E-06	9.34136E-06	1.540773E-05	1.198375E-05
-1.015902E-05	-2.218002E-06	-4.70006E-06	-2.01961E-05	-1.522193E-05	-5.449779E-06	3.457955E-06	-1.040604E-05	5.981213E-07	4.184742E-06	-3.191284E-05	-1.854392E-05	7.883377E-06	8.30353E-06	1.517136E-05	1.291929E-05
-1.015902E-05	-2.218002E-06	-4.70006E-06	-2.01961E-05	-1.522193E-05	-5.449779E-06	3.457955E-06	-1.040604E-05	5.981213E-07	4.184742E-06	-3.191284E-05	-1.854392E-05	7.883377E-06	8.30353E-06	1.517136E-05	1.291929E-05
-1.048288E-05	-9.053269E-07	-4.965747E-06	-1.953424E-05	-1.555469E-05	-5.776279E-06	3.42338E-06	-1.005582E-05	1.837039E-08	5.295547E-06	-3.285455E-05	-1.91918E-05	7.698344E-06	6.83508E-06	1.588252E-05	1.286616E-05
-1.048288E-05	-9.053269E-07	-4.965747E-06	-1.953424E-05	-1.555469E-05	-5.776279E-06	3.42338E-06	-1.005582E-05	1.837039E-08	5.295547E-06	-3.285455E-05	-1.91918E-05	7.698344E-06	6.83508E-06	1.588252E-05	1.286616E-05
-1.107924E-05	-8.764474E-07	-4.919821E-06	-1.801448E-05	-1.543375E-05	-6.388882E-06	1.487296E-06	-1.069342E-05	7.493951E-07	5.198767E-06	-3.332776E-05	-1.985356E-05	8.087468E-06	7.356698E-06	1.574801E-05	1.149497E-05
-1.107924E-05	-8.764474E-07	-4.919821E-06	-1.801448E-05	-1.543375E-05	-6.388882E-06	1.487296E-06	-1.069342E-05	7.493951E-07	5.198767E-06	-3.332776E-05	-1.985356E-05	8.087468E-06	7.356698E-06	1.574801E-05	1.149497E-05
-1.206548E-05	-3.116115E-06	-4.98298E-06	-1.58921E-05	-1.487516E-05	-7.429331E-06	-8.619381E-07	-1.204115E-05	8.535889E-07	3.780442E-06	-3.160421E-05	-1.979429E-05	8.927128E-06	7.847703E-06	1.421872E-05	1.070054E-05
-1.206548E-05	-3.116115E-06	-4.98298E-06	-1.58921E-05	-1.487516E-05	-7.429331E-06	-8.619381E-07	-1.204115E-05	8.535889E-07	3.780442E-06	-3.160421E-05	-1.979429E-05	8.927128E-06	7.847703E-06	1.421872E-05	1.070054E-05
-1.271145E-05	-5.143668E-06	-4.890268E-06	-1.312642E-05	-1.491905E-05	-8.080821E-06	-1.937108E-06	-1.327328E-05	-9.812471E-07	3.228629E-06	-2.937083E-05	-1.947105E-05	8.585153E-06	7.444245E-06	1.262612E-05	1.079521E-05
-1.271145E-05	-5.143668E-06	-4.890268E-06	-1.312642E-05	-1.491905E-05	-8.080821E-06	-1.937108E-06	-1.327328E-05	-9.812471E-07	3.228629E-06	-2.937083E-05	-1.947105E-05	8.585153E-06	7.444245E-06	1.262612E-05	1.079521E-05
-1.274603E-05	-4.860365E-06	-4.598328E-06	-1.13607E-05	-1.559344E-05	-7.952051E-06	-1.368733E-06	-1.352733E-05	-1.649065E-06	3.455301E-06	-2.887806E-05	-1.961664E-05	7.216704E-06	6.404173E-06	1.190555E-05	1.023602E-05
-1.274603E-05	-4.860365E-06	-4.598328E-06	-1.13607E-05	-1.559344E-05	-7.952051E-06	-1.368733E-06	-1.352733E-05	-1.649065E-06	3.455301E-06	-2.887806E-05	-1.961664E-05	7.216704E-06	6.404173E-06	1.190555E-05	1.023602E-05
-1.225717E-05	-2.818833E-06	-4.123041E-06	-1.149118E-05	-1.632581E-05	-7.540185E-06	-1.988928E-07	-1.336136E-05	-3.970267E-07	3.604444E-06	-2.984082E-05	-1.980729E-05	6.738466E-06	6.457632E-06	1.165275E-05	9.389658E-06
-1.225717E-05	-2.818833E-06	-4.123041E-06	-1.149118E-05	-1.632581E-05	-7.540185E-06	-1.988928E-07	-1.336136E-05	-3.970267E-07	3.604444E-06	-2.984082E-05	-1.980729E-05	6.738466E-06	6.457632E-06	1.165275E-05	9.389658E-06
-1.143723E-05	-1.495176E-06	-3.53601E-06	-1.20719E-05	-1.691702E-05	-7.343134E-06	4.705412E-07	-1.417845E-05	1.02269E-07	2.292252E-06	-3.206462E-05	-1.974225E-05	8.336055E-06	8.193759E-06	1.124486E-05	7.654214E-06
-1.143723E-05	-1.495176E-06	-3.53601E-06	-1.20719E-05	-1.691702E-05	-7.343134E-06	4.705412E-07	-1.417845E-05	1.02269E-07	2.292252E-06	-3.206462E-05	-1.974225E-05	8.336055E-06	8.193759E-06	1.124486E-05	7.654214E-06
-1.112912E-05	-3.131883E-06	-3.644653E-06	-1.213107E-05	-1.691005E-05	-6.969189E-06	6.710327E-07	-1.56571E-05	-3.395888E-07	5.488134E-07	-3.367549E-05	-2.005035E-05	1.030717E-05	9.635589E-06	1.124775E-05	6.398726E-06
-1.112912E-05	-3.131883E-06	-3.644653E-06	-1.213107E-05	-1.691005E-05	-6.969189E-06	6.710327E-07	-1.56571E-05	-3.395888E-07	5.488134E-07	-3.367549E-05	-2.005035E-05	1.030717E-05	9.635589E-06	1.124775E-05	6.398726E-06
-1.156228E-05	-7.474135E-06	-4.495192E-06	-1.200991E-05	-1.611315E-05	-6.040133E-06	1.002017E-06	-1.644621E-05	7.320608E-07	2.445677E-07	-3.379137E-05	-2.03465E-05	1.049508E-05	8.649748E-06	1.0765E-05	7.217561E-06
-1.156228E-05	-7.474135E-06	-4.495192E-06	-1.200991E-05	-1.611315E-05	-6.040133E-06	1.002017E-06	-1.644621E-05	7.320608E-07	2.445677E-07	-3.379137E-05	-2.03465E-05	1.049508E-05	8.649748E-06	1.0765E-05	7.217561E-06
-1.151452E-05	-1.184E-05	-4.531402E-06	-1.192829E-05	-1.531797E-05	-5.227125E-06	1.57424E-06	-1.616901E-05	2.864304E-06	1.599882E-06	-3.417064E-05	-1.965955E-05	9.324726E-06	6.827741E-06	9.567628E-06	9.041677E-06
-1.151452E-05	-1.184E-05	-4.531402E-06	-1.192829E-05	-1.531797E-05	-5.227125E-06	1.57424E-06	-1.616901E-05	2.864304E-06	1.599882E-06	-3.417064E-05	-1.965955E-05	9.324726E-06	6.827741E-06	9.567628E-06	9.041677E-06
-1.053648E-05	-1.357135E-05	-3.336245E-06	-1.138073E-05	-1.528144E-05	-5.216301E-06	2.147777E-06	-1.471692E-05	2.729082E-06	3.23472E-06	-3.540343E-05	-1.979728E-05	7.270859E-06	5.715938E-06	8.583181E-06	9.315536E-06
-1.053648E-05	-1.357135E-05	-3.336245E-06	-1.138073E-05	-1.528144E-05	-5.216301E-06	2.147777E-06	-1.471692E-05	2.729082E-06	3.23472E-06	-3.540343E-05	-1.979728E-05	7.270859E-06	5.715938E-06	8.583181E-06	9.315536E-06
-9.719643E-06	-1.208335E-05	-2.342729E-06	-9.695133E-06	-1.599723E-05	-5.893334E-06	2.655331E-06	-1.266146E-05	8.210055E-07	4.233349E-06	-3.536114E-05	-2.056667E-05	7.428866E-06	5.354261E-06	7.773485E-06	8.473166E-06
-9.719643E-06	-1.208335E-05	-2.342729E-06	-9.695133E-06	-1.599723E-05	-5.893334E-06	2.655331E-06	-1.266146E-05	8.210055E-07	4.233349E-06	-3.536114E-05	-2.056667E-05	7.428866E-06	5.354261E-06	7.773485E-06	8.473166E-06
-9.885835E-06	-8.79392E-06	-2.373659E-06	-7.046046E-06	-1.696782E-05	-6.681874E-06	3.215657E-06	-1.19933E-05	-8.978291E-07	3.285169E-06	-3.440058E-05	-2.171968E-05	8.775224E-06	4.600294E-06	7.745186E-06	8.016017E-06
-9.885835E-06	-8.79392E-06	-2.373659E-06	-7.046046E-06	-1.696782E-05	-6.681874E-06	3.215657E-06	-1.19933E-05	-8.978291E-07	3.285169E-06	-3.440058E-05	-2.171968E-05	8.775224E-06	4.600294E-06	7.745186E-06	8.016017E-06
-1.086509E-05	-5.543749E-06	-2.740856E-06	-4.205236E-06	-1.746717E-05	-6.854387E-06	3.389989E-06	-1.33491E-05	-1.323051E-06	1.39868E-06	-3.413587E-05	-2.204713E-05	7.908451E-06	3.34486E-06	9.046731E-06	8.714172E-06
-1.086509E-05	-5.543749E-06	-2.740856E-06	-4.205236E-06	-1.746717E-05	-6.854387E-06	3.389989E-06	-1.33491E-05	-1.323051E-06	1.39868E-06	-3.413587E-05	-2.204713E-05	7.908451E-06	3.34486E-06	9.046731E-06	8.714172E-06
-1.19415E-05	-3.381123E-06	-2.433611E-06	-1.992294E-06	-1.713814E-05	-6.175388E-06	2.492284E-06	-1.506962E-05	-3.031307E-07	4.751917E-07	-3.443569E-05	-2.077705E-05	5.876229E-06	4.530593E-06	1.020801E-05	1.016765E-05
-1.19415E-05	-3.381123E-06	-2.433611E-06	-1.992294E-06	-1.713814E-05	-6.175388E-06	2.492284E-06	-1.506962E-05	-3.031307E-07	4.751917E-07	-3.443569E-05	-2.077705E-05	5.876229E-06	4.530593E-06	1.020801E-05	1.016765E-05
-1.244411E-05	-2.640144E-06	-1.499924E-06	-1.228219E-06	-1.647078E-05	-5.414094E-06	1.060514E-06	-1.598609E-05	7.536215E-07	-2.426749E-07	-3.372979E-05	-2.022474E-05	4.626808E-06	6.149864E-06	1.040858E-05	1.252862E-05
-1.244411E-05	-2.640144E-06	-1.499924E-06	-1.228219E-06	-1.647078E-05	-5.414094E-06	1.060514E-06	-1.598609E-05	7.536215E-07	-2.426749E-07	-3.372979E-05	-2.022474E-05	4.626808E-06	6.149864E-06	1.040858E-05	1.252862E-05
-1.220435E-05	-2.921336E-06	-6.282632E-07	-1.660272E-06	-1.576855E-05	-5.378772E-06	2.74334E-08	-1.602837E-05	1.129264E-07	-1.267339E-06	-3.24142E-05	-2.072974E-05	5.450918E-06	5.563989E-06	8.666064E-06	1.428402E-05
-1.220435E-05	-2.921336E-06	-6.282632E-07	-1.660272E-06	-1.576855E-05	-5.378772E-06	2.74334E-08	-1.602837E-05	1.129264E-07	-1.267339E-06	-3.24142E-05	-2.072974E-05	5.450918E-06	5.563989E-06	8.666064E-06	1.428402E-05
-1.158738E-05	-3.288184E-06	-5.388304E-08	-1.954494E-06	-1.469161E-05	-5.891798E-06	-6.573248E-07	-1.539948E-05	-1.966558E-06	-3.903911E-06	-3.191158E-05	-2.088487E-05	6.086073E-06	4.734732E-06	6.909262E-06	1.456421E-05
-1.158738E-05	-3.288184E-06	-5.388304E-08	-1.954494E-06	-1.469161E-05	-5.891798E-06	-6.573248E-07	-1.539948E-05	-1.966558E-06	-3.903911E-06	-3.191158E-05	-2.088487E-05	6.086073E-06	4.734732E-06	6.909262E-06	1.456421E-05
-1.124114E-05	-2.871591E-06	6.319799E-07	-1.315891E-06	-1.380567E-05	-6.277869E-06	-1.333489E-06	-1.476853E-05	-3.084632E-06	-4.730849E-06	-3.029372E-05	-2.048838E-05	6.433053E-06	3.237321E-06	6.572071E-06	1.607194E-05
-1.124114E-05	-2.871591E-06	6.319799E-07	-1.315891E-06	-1.380567E-05	-6.277869E-06	-1.333489E-06	-1.476853E-05	-3.084632E-06	-4.730849E-06	-3.029372E-05	-2.048838E-05	6.433053E-06	3.237321E-06	6.572071E-06	1.607194E-05
-1.163674E-05	-1.03809E-06	1.865301E-06	1.830848E-07	-1.398606E-05	-6.222542E-06	-2.123338E-06	-1.447577E-05	-2.276223E-06	-1.601033E-06	-3.066522E-05	-2.043643E-05	6.921063E-06	1.3147E-06	6.523254E-06	1.618176E-05
-1.163674E-05	-1.03809E-06	1.865301E-06	1.830848E-07	-1.398606E-05	-6.222542E-06	-2.123338E-06	-1.447577E-05	-2.276223E-06	-1.601033E-06	-3.066522E-05	-2.043643E-05	6.921063E-06	1.3147E-06	6.523254E-06	1.618176E-05
-1.263332E-05	1.235377E-06	2.477678E-06	1.255114E-06	-1.451914E-05	-6.145202E-06	-2.728947E-06	-1.397086E-05	-5.373364E-07	1.193528E-06	-3.293426E-05	-2.080665E-05	6.568943E-06	1.6571E-06	6.034427E-06	1.443118E-05
-1.263332E-05	1.235377E-06	2.477678E-06	1.255114E-06	-1.451914E-05	-6.145202E-06	-2.728947E-06	-1.397086E-05	-5.373364E-07	1.193528E-06	-3.293426E-05	-2.080665E-05	6.568943E-06	1.6571E-06	6.034427E-06	1.443118E-05
-1.376187E-05	1.681422E-06	1.048481E-06	7.240502E-07	-1.451863E-05	-6.944687E-06	-2.999937E-06	-1.30541E-05	7.624587E-07	2.346302E-06	-3.278165E-05	-1.92384E-05	7.573167E-06	2.466192E-06	7.830256E-06	1.450249E-05
-1.376187E-05	1.681422E-06	1.048481E-06	7.240502E-07	-1.451863E-05	-6.944687E-06	-2.999937E-06	-1.30541E-05	7.624587E-07	2.346302E-06	-3.278165E-05	-1.92384E-05	7.573167E-06	2.466192E-06	7.830256E-06	1.450249E-05
-1.448636E-05	-9.254219E-08	-1.226356E-06	-5.037558E-07	-1.436835E-05	-8.517567E-06	-3.822641E-06	-1.234905E-05	-9.164469E-07	3.043368E-06	-3.149457E-05	-1.744719E-05	8.741502E-06	3.468489E-06	1.132786E-05	1.465483E-05
-1.448636E-05	-9.254219E-08	-1.226356E-06	-5.037558E-07	-1.436835E-05	-8.517567E-06	-3.822641E-06	-1.234905E-05	-9.164469E-07	3.043368E-06	-3.149457E-05	-1.744719E-05	8.741502E-06	3.468489E-06	1.132786E-05	1.465483E-05
-1.40884E-05	-2.695005E-06	-2.63272E-06	-1.892844E-06	-1.45951E-05	-9.05054E-06	-5.535036E-06	-1.24191E-05	-3.075141E-06	3.680289E-06	-3.02288E-05	-1.543302E-05	9.465718E-06	6.098111E-06	1.227871E-05	1.338578E-05
-1.40884E-05	-2.695005E-06	-2.63272E-06	-1.892844E-06	-1.45951E-05	-9.05054E-06	-5.535036E-06	-1.24191E-05	-3.075141E-06	3.680289E-06	-3.02288E-05	-1.543302E-05	9.465718E-06	6.098111E-06	1.227871E-05	1.338578E-05
-1.299483E-05	-4.169729E-06	-3.518097E-06	-3.453412E-06	-1.509496E-05	-7.882245E-06	-6.957366E-06	-1.306581E-05	-3.311729E-06	3.891722E-06	-2.95077E-05	-1.465775E-05	9.919366E-06	6.548295E-06	1.211013E-05	1.262144E-05
-1.299483E-05	-4.169729E-06	-3.518097E-06	-3.453412E-06	-1.509496E-05	-7.882245E-06	-6.957366E-06	-1.306581E-05	-3.311729E-06	3.891722E-06	-2.95077E-05	-1.465775E-05	9.919366E-06	6.548295E-06	1.211013E-05	1.262144E-05
-1.268819E-05	-2.9489E-06	-4.43897E-06	-3.709654E-06	-1.546931E-05	-6.722345E-06	-7.059846E-06	-1.359043E-05	-2.948154E-06	3.194827E-06	-2.818608E-05	-1.442536E-05	9.004095E-06	4.581359E-06	1.05928E-05	1.348156E-05
-1.268819E-05	-2.9489E-06	-4.43897E-06	-3.709654E-06	-1.546931E-05	-6.722345E-06	-7.059846E-06	-1.359043E-05	-2.948154E-06	3.194827E-06	-2.818608E-05	-1.442536E-05	9.004095E-06	4.581359E-06	1.05928E-05	1.348156E-05
-1.282674E-05	-1.029061E-06	-4.361819E-06	-2.341341E-06	-1.551084E-05	-6.362443E-06	-6.022975E-06	-1.390198E-05	-2.049211E-06	3.228217E-06	-2.826495E-05	-1.421203E-05	7.718712E-06	3.450358E-06	8.114746E-06	1.518404E-05
-1.282674E-05	-1.029061E-06	-4.361819E-06	-2.341341E-06	-1.551084E-05	-6.362443E-06	-6.022975E-06	-1.390198E-05	-2.049211E-06	3.228217E-06	-2.826495E-05	-1.421203E-05	7.718712E-06	3.450358E-06	8.114746E-06	1.518404E-05
-1.197774E-05	-2.417445E-06	-3.006556E-06	-1.356123E-06	-1.57584E-05	-5.945337E-06	-4.629607E-06	-1.447953E-05	-6.855092E-07	3.672969E-06	-2.916723E-05	-1.489505E-05	7.18934E-06	3.355497E-06	7.276315E-06	1.714401E-05
-1.197774E-05	-2.417445E-06	-3.006556E-06	-1.356123E-06	-1.57584E-05	-5.945337E-06	-4.629607E-06	-1.447953E-05	-6.855092E-07	3.672969E-06	-2.916723E-05	-1.489505E-05	7.18934E-06	3.355497E-06	7.276315E-06	1.714401E-05
-1.050086E-05	-7.87676E-06	-2.361466E-06	-2.309189E-06	-1.685089E-05	-5.1749E-06	-3.479794E-06	-1.524831E-05	-1.07386E-06	2.661812E-06	-2.9953E-05	-1.579857E-05	7.058103E-06	3.376874E-06	7.797025E-06	1.762816E-05
-1.050086E-05	-7.87676E-06	-2.361466E-06	-2.309189E-06	-1.685089E-05	-5.1749E-06	-3.479794E-06	-1.524831E-05	-1.07386E-06	2.661812E-06	-2.9953E-05	-1.579857E-05	7.058103E-06	3.376874E-06	7.797025E-06	1.762816E-05
-9.8195E-06	-1.433558E-05	-3.283779E-06	-4.650055E-06	-1.739346E-05	-4.994885E-06	-3.031509E-06	-1.530348E-05	-3.077912E-06	1.661279E-06	-3.088239E-05	-1.60718E-05	6.347909E-06	2.643244E-06	7.509029E-06	1.62232E-05
-9.8195E-06	-1.433558E-05	-3.283779E-06	-4.650055E-06	-1.739346E-05	-4.994885E-06	-3.031509E-06	-1.530348E-05	-3.077912E-06	1.661279E-06	-3.088239E-05	-1.60718E-05	6.347909E-06	2.643244E-06	7.509029E-06	1.62232E-05
-1.061601E-05	-1.747988E-05	-4.469874E-06	-6.776499E-06	-1.578941E-05	-6.009311E-06	-3.557476E-06	-1.406881E-05	-3.873483E-06	2.556686E-06	-3.09884E-05	-1.484941E-05	6.197091E-06	2.356898E-06	7.235845E-06	1.448909E-05
-1.061601E-05	-1.747988E-05	-4.469874E-06	-6.776499E-06	-1.578941E-05	-6.009311E-06	-3.557476E-06	-1.406881E-05	-3.873483E-06	2.556686E-06	-3.09884E-05	-1.484941E-05	6.197091E-06	2.356898E-06	7.235845E-06	1.448909E-05
-1.228902E-05	-1.501624E-05	-5.170272E-06	-8.222946E-06	-1.394069E-05	-6.908056E-06	-4.699817E-06	-1.24191E-05	-2.783935E-06	3.766356E-06	-3.140722E-05	-1.412134E-05	7.14339E-06	3.102137E-06	7.803264E-06	1.357574E-05
-1.228902E-05	-1.501624E-05	-5.170272E-06	-8.222946E-06	-1.394069E-05	-6.908056E-06	-4.699817E-06	-1.24191E-05	-2.783935E-06	3.766356E-06	-3.140722E-05	-1.412134E-05	7.14339E-06	3.102137E-06	7.803264E-06	1.357574E-05
-1.329274E-05	-9.59955E-06	-5.372779E-06	-1.012725E-05	-1.39853E-05	-6.555584E-06	-5.619056E-06	-1.153763E-05	-1.297392E-06	3.309664E-06	-3.16683E-05	-1.546936E-05	8.707276E-06	3.722834E-06	8.761977E-06	1.340717E-05
-1.329274E-05	-9.59955E-06	-5.372779E-06	-1.012725E-05	-1.39853E-05	-6.555584E-06	-5.619056E-06	-1.153763E-05	-1.297392E-06	3.309664E-06	-3.16683E-05	-1.546936E-05	8.707276E-06	3.722834E-06	8.761977E-06	1.340717E-05
-1.292586E-05	-5.894427E-06	-5.00246E-06	-1.313691E-05	-1.495237E-05	-5.752949E-06	-5.797228E-06	-1.144585E-05	-5.237903E-07	2.280004E-06	-3.138954E-05	-1.766339E-05	9.754669E-06	3.148604E-06	9.322361E-06	1.263635E-05
-1.292586E-05	-5.894427E-06	-5.00246E-06	-1.313691E-05	-1.495237E-05	-5.752949E-06	-5.797228E-06	-1.144585E-05	-5.237903E-07	2.280004E-06	-3.138954E-05	-1.766339E-05	9.754669E-06	3.148604E-06	9.322361E-06	1.263635E-05
-1.264808E-05	-4.313364E-06	-4.316199E-06	-1.553649E-05	-1.554339E-05	-5.334278E-06	-5.608674E-06	-1.144879E-05	-3.66498E-07	2.669115E-06	-3.034888E-05	-1.833214E-05	8.94978E-06	2.653286E-06	9.533647E-06	1.148847E-05
-1.264808E-05	-4.313364E-06	-4.316199E-06	-1.553649E-05	-1.554339E-05	-5.334278E-06	-5.608674E-06	-1.144879E-05	-3.66498E-07	2.669115E-06	-3.034888E-05	-1.833214E-05	8.94978E-06	2.653286E-06	9.533647E-06	1.148847E-05
-1.338706E-05	-2.540627E-06	-3.651336E-06	-1.589148E-05	-1.579496E-05	-5.430011E-06	-5.819426E-06	-1.104328E-05	1.195005E-07	4.638714E-06	-2.922776E-05	-1.821301E-05	7.340452E-06	2.933418E-06	9.065252E-06	9.737521E-06
-1.338706E-05	-2.540627E-06	-3.651336E-06	-1.589148E-05	-1.579496E-05	-5.430011E-06	-5.819426E-06	-1.104328E-05	1.195005E-07	4.638714E-06	-2.922776E-05	-1.821301E-05	7.340452E-06	2.933418E-06	9.065252E-06	9.737521E-06
-1.358527E-05	-1.529876E-07	-3.159174E-06	-1.568301E-05	-1.614049E-05	-6.090054E-06	-6.564572E-06	-1.021567E-05	5.354409E-07	5.971988E-06	-2.81607E-05	-1.69292E-05	6.256765E-06	3.960385E-06	8.354622E-06	8.000102E-06
-1.358527E-05	-1.529876E-07	-3.159174E-06	-1.568301E-05	-1.614049E-05	-6.090054E-06	-6.564572E-06	-1.021567E-05	5.354409E-07	5.971988E-06	-2.81607E-05	-1.69292E-05	6.256765E-06	3.960385E-06	8.354622E-06	8.000102E-06
-1.260109E-05	2.152658E-06	-3.337662E-06	-1.638793E-05	-1.655771E-05	-6.888986E-06	-6.997081E-06	-9.195729E-06	2.408945E-07	6.189405E-06	-2.891312E-05	-1.527134E-05	6.054481E-06	5.807545E-06	7.943167E-06	8.389073E-06
-1.260109E-05	2.152658E-06	-3.337662E-06	-1.638793E-05	-1.655771E-05	-6.888986E-06	-6.997081E-06	-9.195729E-06	2.408945E-07	6.189405E-06	-2.891312E-05	-1.527134E-05	6.054481E-06	5.807545E-06	7.943167E-06	8.389073E-06
-1.153053E-05	3.813215E-06	-4.33466E-06	-1.744707E-05	-1.678438E-05	-7.201178E-06	-6.596693E-06	-8.604376E-06	1.030371E-06	6.154797E-06	-3.112638E-05	-1.552921E-05	6.642345E-06	5.646519E-06	8.210503E-06	1.050067E-05
-1.153053E-05	3.813215E-06	-4.33466E-06	-1.744707E-05	-1.678438E-05	-7.201178E-06	-6.596693E-06	-8.604376E-06	1.030371E-06	6.154797E-06	-3.112638E-05	-1.552921E-05	6.642345E-06	5.646519E-06	8.210503E-06	1.050067E-05
-1.048868E-05	4.502574E-06	-5.143498E-06	-1.775938E-05	-1.714669E-05	-6.990993E-06	-6.24375E-06	-9.256054E-06	9.768986E-07	5.691969E-06	-3.295095E-05	-1.71821E-05	7.020604E-06	3.07429E-06	9.742838E-06	1.166729E-05
-1.048868E-05	4.502574E-06	-5.143498E-06	-1.775938E-05	-1.714669E-05	-6.990993E-06	-6.24375E-06	-9.256054E-06	9.768986E-07	5.691969E-06	-3.295095E-05	-1.71821E-05	7.020604E-06	3.07429E-06	9.742838E-06	1.166729E-05
-9.525937E-06	4.701824E-06	-5.483653E-06	-1.701844E-05	-1.774123E-05	-6.468086E-06	-6.302373E-06	-1.015779E-05	-4.069991E-07	4.786997E-06	-3.29059E-05	-1.830972E-05	6.301225E-06	1.864385E-06	1.117959E-05	1.174407E-05
-9.525937E-06	4.701824E-06	-5.483653E-06	-1.701844E-05	-1.774123E-05	-6.468086E-06	-6.302373E-06	-1.015779E-05	-4.069991E-07	4.786997E-06	-3.29059E-05	-1.830972E-05	6.301225E-06	1.864385E-06	1.117959E-05	1.174407E-05
-9.628537E-06	4.727956E-06	-6.120693E-06	-1.59589E-05	-1.781538E-05	-5.627537E-06	-5.975236E-06	-9.456865E-06	5.721213E-08	4.01669E-06	-3.223971E-05	-1.902357E-05	6.515853E-06	2.029289E-06	1.29483E-05	1.210029E-05
-9.628537E-06	4.727956E-06	-6.120693E-06	-1.59589E-05	-1.781538E-05	-5.627537E-06	-5.975236E-06	-9.456865E-06	5.721213E-08	4.01669E-06	-3.223971E-05	-1.902357E-05	6.515853E-06	2.029289E-06	1.29483E-05	1.210029E-05
-1.091445E-05	3.626985E-06	-6.546442E-06	-1.5514E-05	-1.693233E-05	-4.590394E-06	-5.549541E-06	-8.175989E-06	2.064027E-06	4.832867E-06	-3.151791E-05	-1.925672E-05	9.234799E-06	2.19911E-06	1.421565E-05	1.20441E-05
-1.091445E-05	3.626985E-06	-6.546442E-06	-1.5514E-05	-1.693233E-05	-4.590394E-06	-5.549541E-06	-8.175989E-06	2.064027E-06	4.832867E-06	-3.151791E-05	-1.925672E-05	9.234799E-06	2.19911E-06	1.421565E-05	1.20441E-05
-1.209356E-05	1.16025E-06	-5.986614E-06	-1.606318E-05	-1.548421E-05	-4.08755E-06	-6.061831E-06	-8.513365E-06	2.906485E-06	5.848566E-06	-3.140435E-05	-1.936132E-05	1.173814E-05	2.483512E-06	1.397968E-05	1.179146E-05
-1.209356E-05	1.16025E-06	-5.986614E-06	-1.606318E-05	-1.548421E-05	-4.08755E-06	-6.061831E-06	-8.513365E-06	2.906485E-06	5.848566E-06	-3.140435E-05	-1.936132E-05	1.173814E-05	2.483512E-06	1.397968E-05	1.179146E-05
-1.205545E-05	-1.071633E-06	-5.165427E-06	-1.725796E-05	-1.415382E-05	-4.774397E-06	-7.402088E-06	-1.021119E-05	2.500738E-06	5.585839E-06	-3.324439E-05	-1.956689E-05	1.082322E-05	2.388603E-06	1.373162E-05	1.170804E-05
-1.205545E-05	-1.071633E-06	-5.165427E-06	-1.725796E-05	-1.415382E-05	-4.774397E-06	-7.402088E-06	-1.021119E-05	2.500738E-06	5.585839E-06	-3.324439E-05	-1.956689E-05	1.082322E-05	2.388603E-06	1.373162E-05	1.170804E-05
-1.146057E-05	-2.295935E-06	-4.688916E-06	-1.777912E-05	-1.375532E-05	-6.103686E-06	-7.675445E-06	-1.197812E-05	2.527606E-06	7.36517E-06	-3.439797E-05	-1.998344E-05	7.779039E-06	4.042318E-06	1.37931E-05	9.469538E-06
-1.146057E-05	-2.295935E-06	-4.688916E-06	-1.777912E-05	-1.375532E-05	-6.103686E-06	-7.675445E-06	-1.197812E-05	2.527606E-06	7.36517E-06	-3.439797E-05	-1.998344E-05	7.779039E-06	4.042318E-06	1.37931E-05	9.469538E-06
-1.159196E-05	-3.073058E-06	-4.269661E-06	-1.652772E-05	-1.449947E-05	-7.254504E-06	-5.256625E-06	-1.323575E-05	1.131351E-06	8.990081E-06	-3.497189E-05	-1.969294E-05	6.531166E-06	5.186696E-06	1.263087E-05	8.333166E-06
-1.159196E-05	-3.073058E-06	-4.269661E-06	-1.652772E-05	-1.449947E-05	-7.254504E-06	-5.256625E-06	-1.323575E-05	1.131351E-06	8.990081E-06	-3.497189E-05	-1.969294E-05	6.531166E-06	5.186696E-06	1.263087E-05	8.333166E-06
-1.231904E-05	-2.955923E-06	-3.934423E-06	-1.468744E-05	-1.489127E-05	-7.828157E-06	-2.596079E-06	-1.316759E-05	-4.141687E-07	6.649572E-06	-3.421684E-05	-1.933514E-05	6.329166E-06	3.293192E-06	1.269253E-05	9.141913E-06
-1.231904E-05	-2.955923E-06	-3.934423E-06	-1.468744E-05	-1.489127E-05	-7.828157E-06	-2.596079E-06	-1.316759E-05	-4.141687E-07	6.649572E-06	-3.421684E-05	-1.933514E-05	6.329166E-06	3.293192E-06	1.269253E-05	9.141913E-06
-1.306021E-05	-1.62647E-06	-4.048285E-06	-1.39163E-05	-1.386037E-05	-7.724916E-06	-2.592791E-06	-1.222491E-05	-4.785799E-07	3.98953E-06	-3.28363E-05	-1.968586E-05	6.135816E-06	2.038706E-06	1.333629E-05	1.026412E-05
-1.306021E-05	-1.62647E-06	-4.048285E-06	-1.39163E-05	-1.386037E-05	-7.724916E-06	-2.592791E-06	-1.222491E-05	-4.785799E-07	3.98953E-06	-3.28363E-05	-1.968586E-05	6.135816E-06	2.038706E-06	1.333629E-05	1.026412E-05
-1.368317E-05	-7.801417E-07	-4.620463E-06	-1.339497E-05	-1.282618E-05	-7.806128E-06	-3.539469E-06	-1.283828E-05	-7.710303E-07	3.185024E-06	-3.264485E-05	-1.92378E-05	7.372122E-06	3.53086E-06	1.267358E-05	1.11816E-05
-1.368317E-05	-7.801417E-07	-4.620463E-06	-1.339497E-05	-1.282618E-05	-7.806128E-06	-3.539469E-06	-1.283828E-05	-7.710303E-07	3.185024E-06	-3.264485E-05	-1.92378E-05	7.372122E-06	3.53086E-06	1.267358E-05	1.11816E-05
-1.375921E-05	-1.636852E-06	-5.501937E-06	-1.17616E-05	-1.314224E-05	-8.59728E-06	-3.876486E-06	-1.487137E-05	-1.31429E-06	3.588964E-06	-3.28725E-05	-1.746113E-05	8.38232E-06	3.706244E-06	1.214256E-05	1.213609E-05
-1.375921E-05	-1.636852E-06	-5.501937E-06	-1.17616E-05	-1.314224E-05	-8.59728E-06	-3.876486E-06	-1.487137E-05	-1.31429E-06	3.588964E-06	-3.28725E-05	-1.746113E-05	8.38232E-06	3.706244E-06	1.214256E-05	1.213609E-05
-1.308408E-05	-3.11428E-06	-6.246667E-06	-9.774911E-06	-1.441867E-05	-9.549592E-06	-4.750459E-06	-1.608143E-05	-1.331574E-06	2.910736E-06	-3.313371E-05	-1.621692E-05	7.215272E-06	2.721953E-06	1.029137E-05	1.261471E-05
-1.308408E-05	-3.11428E-06	-6.246667E-06	-9.774911E-06	-1.441867E-05	-9.549592E-06	-4.750459E-06	-1.608143E-05	-1.331574E-06	2.910736E-06	-3.313371E-05	-1.621692E-05	7.215272E-06	2.721953E-06	1.029137E-05	1.261471E-05
-1.218137E-05	-3.75541E-06	-5.854834E-06	-8.787411E-06	-1.567072E-05	-1.033112E-05	-6.063042E-06	-1.638079E-05	-1.328572E-06	2.652416E-06	-3.2908E-05	-1.615461E-05	5.574505E-06	3.239568E-06	8.29694E-06	1.09121E-05
-1.218137E-05	-3.75541E-06	-5.854834E-06	-8.787411E-06	-1.567072E-05	-1.033112E-05	-6.063042E-06	-1.638079E-05	-1.328572E-06	2.652416E-06	-3.2908E-05	-1.615461E-05	5.574505E-06	3.239568E-06	8.29694E-06	1.09121E-05
-1.148712E-05	-3.474681E-06	-3.905225E-06	-8.340739E-06	-1.578506E-05	-1.043313E-05	-6.121432E-06	-1.635606E-05	-2.992421E-06	3.14225E-06	-3.323092E-05	-1.650006E-05	4.624091E-06	4.690077E-06	8.014493E-06	9.621039E-06
-1.148712E-05	-3.474681E-06	-3.905225E-06	-8.340739E-06	-1.578506E-05	-1.043313E-05	-6.121432E-06	-1.635606E-05	-2.992421E-06	3.14225E-06	-3.323092E-05	-1.650006E-05	4.624091E-06	4.690077E-06	8.014493E-06	9.621039E-06
-1.125564E-05	-2.9758E-06	-1.819037E-06	-7.401677E-06	-1.44397E-05	-9.514371E-06	-4.716057E-06	-1.591377E-05	-3.906721E-06	2.937069E-06	-3.378768E-05	-1.690937E-05	4.89922E-06	6.648676E-06	8.059179E-06	9.582238E-06
-1.125564E-05	-2.9758E-06	-1.819037E-06	-7.401677E-06	-1.44397E-05	-9.514371E-06	-4.716057E-06	-1.591377E-05	-3.906721E-06	2.937069E-06	-3.378768E-05	-1.690937E-05	4.89922E-06	6.648676E-06	8.059179E-06	9.582238E-06
-1.179134E-05	-2.734623E-06	-1.770067E-06	-6.296173E-06	-1.31007E-05	-8.457322E-06	-3.653318E-06	-1.536987E-05	-2.736648E-06	2.352358E-06	-3.354545E-05	-1.739982E-05	6.174488E-06	6.944765E-06	8.402364E-06	1.103527E-05
-1.179134E-05	-2.734623E-06	-1.770067E-06	-6.296173E-06	-1.31007E-05	-8.457322E-06	-3.653318E-06	-1.536987E-05	-2.736648E-06	2.352358E-06	-3.354545E-05	-1.739982E-05	6.174488E-06	6.944765E-06	8.402364E-06	1.103527E-05
-1.28033E-05	-3.094352E-06	-3.550731E-06	-5.594619E-06	-1.359938E-05	-7.838428E-06	-3.769934E-06	-1.49037E-05	-3.004952E-07	1.446591E-06	-3.235585E-05	-1.712347E-05	6.497491E-06	8.328094E-06	1.038593E-05	1.29487E-05
-1.28033E-05	-3.094352E-06	-3.550731E-06	-5.594619E-06	-1.359938E-05	-7.838428E-06	-3.769934E-06	-1.49037E-05	-3.004952E-07	1.446591E-06	-3.235585E-05	-1.712347E-05	6.497491E-06	8.328094E-06	1.038593E-05	1.29487E-05
-1.319217E-05	-4.09009E-06	-5.048248E-06	-5.457E-06	-1.582078E-05	-7.292502E-06	-3.997064E-06	-1.436347E-05	1.125253E-06	1.694206E-06	-3.204268E-05	-1.595279E-05	6.820182E-06	9.521083E-06	1.183649E-05	1.458607E-05
-1.319217E-05	-4.09009E-06	-5.048248E-06	-5.457E-06	-1.582078E-05	-7.292502E-06	-3.997064E-06	-1.436347E-05	1.125253E-06	1.694206E-06	-3.204268E-05	-1.595279E-05	6.820182E-06	9.521083E-06	1.183649E-05	1.458607E-05
-1.202736E-05	-5.057016E-06	-5.720512E-06	-6.092016E-06	-1.761902E-05	-6.897903E-06	-3.550715E-06	-1.390818E-05	-5.813432E-07	1.556346E-06	-3.277537E-05	-1.603911E-05	6.507666E-06	9.168835E-06	1.131297E-05	1.526884E-05
-1.202736E-05	-5.057016E-06	-5.720512E-06	-6.092016E-06	-1.761902E-05	-6.897903E-06	-3.550715E-06	-1.390818E-05	-5.813432E-07	1.556346E-06	-3.277537E-05	-1.603911E-05	6.507666E-06	9.168835E-06	1.131297E-05	1.526884E-05
-9.914214E-06	-5.29107E-06	-5.943393E-06	-6.489034E-06	-1.773341E-05	-7.111498E-06	-2.934719E-06	-1.339235E-05	-3.443678E-06	3.19791E-07	-3.287118E-05	-1.747434E-05	5.201975E-06	7.967434E-06	1.086976E-05	1.472318E-05
-9.914214E-06	-5.29107E-06	-5.943393E-06	-6.489034E-06	-1.773341E-05	-7.111498E-06	-2.934719E-06	-1.339235E-05	-3.443678E-06	3.19791E-07	-3.287118E-05	-1.747434E-05	5.201975E-06	7.967434E-06	1.086976E-05	1.472318E-05
-8.538808E-06	-4.753009E-06	-5.551647E-06	-5.156611E-06	-1.721628E-05	-7.908706E-06	-3.007101E-06	-1.252968E-05	-5.376795E-06	-6.382918E-07	-3.217328E-05	-1.84328E-05	4.59602E-06	8.167654E-06	1.198135E-05	1.344371E-05
-8.538808E-06	-4.753009E-06	-5.551647E-06	-5.156611E-06	-1.721628E-05	-7.908706E-06	-3.007101E-06	-1.252968E-05	-5.376795E-06	-6.382918E-07	-3.217328E-05	-1.84328E-05	4.59602E-06	8.167654E-06	1.198135E-05	1.344371E-05
-8.450998E-06	-3.897256E-06	-5.088619E-06	-3.234921E-06	-1.719058E-05	-8.721233E-06	-3.56427E-06	-1.223495E-05	-6.177387E-06	-1.059389E-06	-3.147296E-05	-1.872815E-05	5.858095E-06	1.010223E-05	1.335395E-05	1.283475E-05
-8.450998E-06	-3.897256E-06	-5.088619E-06	-3.234921E-06	-1.719058E-05	-8.721233E-06	-3.56427E-06	-1.223495E-05	-6.177387E-06	-1.059389E-06	-3.147296E-05	-1.872815E-05	5.858095E-06	1.010223E-05	1.335395E-05	1.283475E-05
-8.682903E-06	-2.576784E-06	-5.265584E-06	-3.155325E-06	-1.745102E-05	-8.941075E-06	-3.645378E-06	-1.344502E-05	-6.025843E-06	-1.284718E-06	-3.066944E-05	-1.87624E-05	7.830105E-06	1.138438E-05	1.349513E-05	1.354734E-05
-8.682903E-06	-2.576784E-06	-5.265584E-06	-3.155325E-06	-1.745102E-05	-8.941075E-06	-3.645378E-06	-1.344502E-05	-6.025843E-06	-1.284718E-06	-3.066944E-05	-1.87624E-05	7.830105E-06	1.138438E-05	1.349513E-05	1.354734E-05
-8.384881E-06	1.926312E-07	-5.57786E-06	-5.260979E-06	-1.728673E-05	-8.427558E-06	-3.014307E-06	-1.516658E-05	-5.258874E-06	-4.996946E-07	-2.97779E-05	-1.812537E-05	8.677525E-06	1.047357E-05	1.355976E-05	1.391081E-05
-8.384881E-06	1.926312E-07	-5.57786E-06	-5.260979E-06	-1.728673E-05	-8.427558E-06	-3.014307E-06	-1.516658E-05	-5.258874E-06	-4.996946E-07	-2.97779E-05	-1.812537E-05	8.677525E-06	1.047357E-05	1.355976E-05	1.391081E-05
-8.000168E-06	4.079777E-06	-5.133771E-06	-7.944624E-06	-1.676639E-05	-7.39638E-06	-2.366375E-06	-1.526673E-05	-3.900831E-06	7.223558E-07	-2.989605E-05	-1.78157E-05	7.291195E-06	8.622409E-06	1.436876E-05	1.279577E-05
-8.000168E-06	4.079777E-06	-5.133771E-06	-7.944624E-06	-1.676639E-05	-7.39638E-06	-2.366375E-06	-1.526673E-05	-3.900831E-06	7.223558E-07	-2.989605E-05	-1.78157E-05	7.291195E-06	8.622409E-06	1.436876E-05	1.279577E-05
-8.333462E-06	6.557243E-06	-3.936369E-06	-9.447582E-06	-1.654547E-05	-6.437762E-06	-2.19448E-06	-1.336747E-05	-1.608205E-06	1.77257E-06	-2.975319E-05	-1.811954E-05	5.840729E-06	8.428036E-06	1.532688E-05	1.167877E-05
-8.333462E-06	6.557243E-06	-3.936369E-06	-9.447582E-06	-1.654547E-05	-6.437762E-06	-2.19448E-06	-1.336747E-05	-1.608205E-06	1.77257E-06	-2.975319E-05	-1.811954E-05	5.840729E-06	8.428036E-06	1.532688E-05	1.167877E-05
-8.979072E-06	5.365684E-06	-2.922886E-06	-9.38038E-06	-1.661507E-05	-6.352734E-06	-2.069273E-06	-1.199004E-05	-8.381338E-08	3.039175E-06	-2.848248E-05	-1.79823E-05	5.77914E-06	9.7903E-06	1.647597E-05	1.212967E-05
-8.979072E-06	5.365684E-06	-2.922886E-06	-9.38038E-06	-1.661507E-05	-6.352734E-06	-2.069273E-06	-1.199004E-05	-8.381338E-08	3.039175E-06	-2.848248E-05	-1.79823E-05	5.77914E-06	9.7903E-06	1.647597E-05	1.212967E-05
-9.205537E-06	1.288843E-06	-2.842303E-06	-8.835639E-06	-1.689806E-05	-6.818909E-06	-1.866506E-06	-1.261886E-05	3.828055E-07	4.086643E-06	-2.718593E-05	-1.843696E-05	5.57647E-06	1.030451E-05	1.641854E-05	1.339281E-05
-9.205537E-06	1.288843E-06	-2.842303E-06	-8.835639E-06	-1.689806E-05	-6.818909E-06	-1.866506E-06	-1.261886E-05	3.828055E-07	4.086643E-06	-2.718593E-05	-1.843696E-05	5.57647E-06	1.030451E-05	1.641854E-05	1.339281E-05
-9.132669E-06	-2.786958E-06	-3.288453E-06	-9.004439E-06	-1.756653E-05	-6.730652E-06	-2.187239E-06	-1.362639E-05	9.038008E-07	3.941941E-06	-2.7777E-05	-2.015414E-05	7.220047E-06	7.666811E-06	1.469306E-05	1.458764E-05
-9.132669E-06	-2.786958E-06	-3.288453E-06	-9.004439E-06	-1.756653E-05	-6.730652E-06	-2.187239E-06	-1.362639E-05	9.038008E-07	3.941941E-06	-2.7777E-05	-2.015414E-05	7.220047E-06	7.666811E-06	1.469306E-05	1.458764E-05
-9.089137E-06	-5.349426E-06	-3.116382E-06	-1.009442E-05	-1.799272E-05	-6.274706E-06	-2.873496E-06	-1.363023E-05	1.426235E-06	3.854187E-06	-2.918586E-05	-2.165718E-05	7.773307E-06	5.38858E-06	1.471583E-05	1.495099E-05
-9.089137E-06	-5.349426E-06	-3.116382E-06	-1.009442E-05	-1.799272E-05	-6.274706E-06	-2.873496E-06	-1.363023E-05	1.426235E-06	3.854187E-06	-2.918586E-05	-2.165718E-05	7.773307E-06	5.38858E-06	1.471583E-05	1.495099E-05
-8.904666E-06	-6.397986E-06	-1.857136E-06	-1.135029E-05	-1.7957E-05	-6.184594E-06	-3.347326E-06	-1.259568E-05	1.257563E-06	4.472069E-06	-2.966897E-05	-2.171089E-05	5.461049E-06	5.042704E-06	1.649593E-05	1.49936E-05
-8.904666E-06	-6.397986E-06	-1.857136E-06	-1.135029E-05	-1.7957E-05	-6.184594E-06	-3.347326E-06	-1.259568E-05	1.257563E-06	4.472069E-06	-2.966897E-05	-2.171089E-05	5.461049E-06	5.042704E-06	1.649593E-05	1.49936E-05
-8.249463E-06	-6.153132E-06	-3.258836E-07	-1.192978E-05	-1.839739E-05	-6.239982E-06	-3.67149E-06	-1.08941E-05	1.105915E-06	3.959258E-06	-2.911811E-05	-2.035806E-05	5.915937E-06	5.340631E-06	1.734251E-05	1.582565E-05
-8.249463E-06	-6.153132E-06	-3.258836E-07	-1.192978E-05	-1.839739E-05	-6.239982E-06	-3.67149E-06	-1.08941E-05	1.105915E-06	3.959258E-06	-2.911811E-05	-2.035806E-05	5.915937E-06	5.340631E-06	1.734251E-05	1.582565E-05
-7.966867E-06	-5.431195E-06	2.993774E-07	-1.196691E-05	-1.935785E-05	-6.492052E-06	-3.572351E-06	-9.045238E-06	2.667396E-06	4.207578E-06	-2.724869E-05	-1.969104E-05	9.333655E-06	5.662233E-06	1.580937E-05	1.662329E-05
-7.966867E-06	-5.431195E-06	2.993774E-07	-1.196691E-05	-1.935785E-05	-6.492052E-06	-3.572351E-06	-9.045238E-06	2.667396E-06	4.207578E-06	-2.724869E-05	-1.969104E-05	9.333655E-06	5.662233E-06	1.580937E-05	1.662329E-05
-9.134224E-06	-5.250583E-06	-2.87277E-07	-1.226869E-05	-2.016758E-05	-7.434411E-06	-2.550117E-06	-7.264387E-06	3.013133E-06	3.804445E-06	-2.627844E-05	-2.015003E-05	1.059502E-05	6.328287E-06	1.281156E-05	1.661126E-05
-9.134224E-06	-5.250583E-06	-2.87277E-07	-1.226869E-05	-2.016758E-05	-7.434411E-06	-2.550117E-06	-7.264387E-06	3.013133E-06	3.804445E-06	-2.627844E-05	-2.015003E-05	1.059502E-05	6.328287E-06	1.281156E-05	1.661126E-05
-1.032081E-05	-6.105256E-06	-9.33704E-07	-1.286232E-05	-2.068683E-05	-8.19465E-06	-1.752218E-06	-6.79185E-06	1.919907E-07	1.46019E-06	-2.697085E-05	-1.988473E-05	8.394812E-06	6.768343E-06	1.074614E-05	1.542596E-05
-1.032081E-05	-6.105256E-06	-9.33704E-07	-1.286232E-05	-2.068683E-05	-8.19465E-06	-1.752218E-06	-6.79185E-06	1.919907E-07	1.46019E-06	-2.697085E-05	-1.988473E-05	8.394812E-06	6.768343E-06	1.074614E-05	1.542596E-05
-9.833178E-06	-7.286392E-06	-4.586638E-07	-1.298536E-05	-2.092098E-05	-7.528708E-06	-2.542209E-06	-8.793725E-06	-2.46331E-06	1.484415E-06	-2.753117E-05	-1.820811E-05	6.124696E-06	7.85718E-06	1.1582E-05	1.379817E-05
-9.833178E-06	-7.286392E-06	-4.586638E-07	-1.298536E-05	-2.092098E-05	-7.528708E-06	-2.542209E-06	-8.793725E-06	-2.46331E-06	1.484415E-06	-2.753117E-05	-1.820811E-05	6.124696E-06	7.85718E-06	1.1582E-05	1.379817E-05
-9.068512E-06	-7.512932E-06	3.792466E-07	-1.225861E-05	-2.112263E-05	-6.219821E-06	-3.791233E-06	-1.156447E-05	-3.397339E-06	2.891378E-06	-2.800287E-05	-1.682696E-05	4.905322E-06	7.099048E-06	1.181198E-05	1.383366E-05
-9.068512E-06	-7.512932E-06	3.792466E-07	-1.225861E-05	-2.112263E-05	-6.219821E-06	-3.791233E-06	-1.156447E-05	-3.397339E-06	2.891378E-06	-2.800287E-05	-1.682696E-05	4.905322E-06	7.099048E-06	1.181198E-05	1.383366E-05
-9.845484E-06	-7.174713E-06	-4.171979E-08	-1.105658E-05	-2.129345E-05	-5.856203E-06	-3.706371E-06	-1.353446E-05	-3.533425E-06	3.919173E-06	-2.91777E-05	-1.530486E-05	5.350165E-06	6.367527E-06	9.094592E-06	1.537033E-05
-9.845484E-06	-7.174713E-06	-4.171979E-08	-1.105658E-05	-2.129345E-05	-5.856203E-06	-3.706371E-06	-1.353446E-05	-3.533425E-06	3.919173E-06	-2.91777E-05	-1.530486E-05	5.350165E-06	6.367527E-06	9.094592E-06	1.537033E-05
-1.157075E-05	-6.862167E-06	-1.637896E-06	-1.026524E-05	-2.106883E-05	-6.489936E-06	-2.650066E-06	-1.487434E-05	-3.51854E-06	2.908559E-06	-3.118814E-05	-1.467479E-05	7.18582E-06	6.880688E-06	7.434474E-06	1.673174E-05
-1.157075E-05	-6.862167E-06	-1.637896E-06	-1.026524E-05	-2.106883E-05	-6.489936E-06	-2.650066E-06	-1.487434E-05	-3.51854E-06	2.908559E-06	-3.118814E-05	-1.467479E-05	7.18582E-06	6.880688E-06	7.434474E-06	1.673174E-05
-1.274438E-05	-5.314199E-06	-2.760901E-06	-1.038456E-05	-2.074726E-05	-6.93604E-06	-2.056176E-06	-1.51526E-05	-2.678343E-06	1.796357E-06	-3.173818E-05	-1.526086E-05	7.074855E-06	7.482968E-06	8.52954E-06	1.628309E-05
-1.274438E-05	-5.314199E-06	-2.760901E-06	-1.038456E-05	-2.074726E-05	-6.93604E-06	-2.056176E-06	-1.51526E-05	-2.678343E-06	1.796357E-06	-3.173818E-05	-1.526086E-05	7.074855E-06	7.482968E-06	8.52954E-06	1.628309E-05
-1.292643E-05	-2.048455E-06	-2.507639E-06	-1.045485E-05	-2.075056E-05	-6.194327E-06	-2.112211E-06	-1.443895E-05	-8.957213E-07	2.074961E-06	-3.150462E-05	-1.634724E-05	5.672689E-06	7.639117E-06	9.714914E-06	1.551159E-05
-1.292643E-05	-2.048455E-06	-2.507639E-06	-1.045485E-05	-2.075056E-05	-6.194327E-06	-2.112211E-06	-1.443895E-05	-8.957213E-07	2.074961E-06	-3.150462E-05	-1.634724E-05	5.672689E-06	7.639117E-06	9.714914E-06	1.551159E-05
-1.269429E-05	1.649229E-06	-1.469041E-06	-9.726167E-06	-2.060925E-05	-4.712691E-06	-2.234931E-06	-1.404381E-05	5.291084E-07	1.054347E-06	-3.139184E-05	-1.672195E-05	4.783536E-06	8.590708E-06	9.673176E-06	1.508163E-05
-1.269429E-05	1.649229E-06	-1.469041E-06	-9.726167E-06	-2.060925E-05	-4.712691E-06	-2.234931E-06	-1.404381E-05	5.291084E-07	1.054347E-06	-3.139184E-05	-1.672195E-05	4.783536E-06	8.590708E-06	9.673176E-06	1.508163E-05
-1.270591E-05	4.500552E-06	-6.787088E-07	-9.435133E-06	-1.937489E-05	-4.334963E-06	-2.52313E-06	-1.450292E-05	1.835933E-06	1.256243E-06	-3.128951E-05	-1.621589E-05	5.744589E-06	9.287252E-06	9.770069E-06	1.601034E-05
-1.270591E-05	4.500552E-06	-6.787088E-07	-9.435133E-06	-1.937489E-05	-4.334963E-06	-2.52313E-06	-1.450292E-05	1.835933E-06	1.256243E-06	-3.128951E-05	-1.621589E-05	5.744589E-06	9.287252E-06	9.770069E-06	1.601034E-05
-1.294835E-05	5.17214E-06	-4.876642E-07	-1.043472E-05	-1.696724E-05	-5.776379E-06	-3.426615E-06	-1.513166E-05	2.882473E-06	3.55739E-06	-3.114207E-05	-1.699E-05	6.11338E-06	7.812763E-06	1.125335E-05	1.769421E-05
-1.294835E-05	5.17214E-06	-4.876642E-07	-1.043472E-05	-1.696724E-05	-5.776379E-06	-3.426615E-06	-1.513166E-05	2.882473E-06	3.55739E-06	-3.114207E-05	-1.699E-05	6.11338E-06	7.812763E-06	1.125335E-05	1.769421E-05
-1.284017E-05	2.659089E-06	-6.146572E-07	-1.16825E-05	-1.471996E-05	-7.586862E-06	-4.684545E-06	-1.51692E-05	2.219788E-06	5.159088E-06	-3.135833E-05	-1.859994E-05	5.309962E-06	5.611294E-06	1.231588E-05	1.778313E-05
-1.284017E-05	2.659089E-06	-6.146572E-07	-1.16825E-05	-1.471996E-05	-7.586862E-06	-4.684545E-06	-1.51692E-05	2.219788E-06	5.159088E-06	-3.135833E-05	-1.859994E-05	5.309962E-06	5.611294E-06	1.231588E-05	1.778313E-05
-1.217414E-05	-1.965385E-06	-1.102252E-06	-1.199775E-05	-1.405604E-05	-8.327839E-06	-5.25771E-06	-1.451853E-05	-3.101293E-07	4.637257E-06	-3.203882E-05	-1.946159E-05	5.154884E-06	4.792007E-06	1.068646E-05	1.634678E-05
-1.217414E-05	-1.965385E-06	-1.102252E-06	-1.199775E-05	-1.405604E-05	-8.327839E-06	-5.25771E-06	-1.451853E-05	-3.101293E-07	4.637257E-06	-3.203882E-05	-1.946159E-05	5.154884E-06	4.792007E-06	1.068646E-05	1.634678E-05
-1.142662E-05	-5.402096E-06	-2.146335E-06	-1.102577E-05	-1.452486E-05	-8.049148E-06	-5.141448E-06	-1.364513E-05	-3.549259E-06	3.941813E-06	-3.278717E-05	-1.906928E-05	5.89285E-06	5.10218E-06	9.140861E-06	1.454331E-05
-1.142662E-05	-5.402096E-06	-2.146335E-06	-1.102577E-05	-1.452486E-05	-8.049148E-06	-5.141448E-06	-1.364513E-05	-3.549259E-06	3.941813E-06	-3.278717E-05	-1.906928E-05	5.89285E-06	5.10218E-06	9.140861E-06	1.454331E-05
-1.110284E-05	-5.362042E-06	-3.589112E-06	-9.334055E-06	-1.47218E-05	-7.673531E-06	-5.395997E-06	-1.294121E-05	-5.051529E-06	3.394038E-06	-3.334473E-05	-1.782563E-05	6.611762E-06	4.322937E-06	9.500744E-06	1.42402E-05
-1.110284E-05	-5.362042E-06	-3.589112E-06	-9.334055E-06	-1.47218E-05	-7.673531E-06	-5.395997E-06	-1.294121E-05	-5.051529E-06	3.394038E-06	-3.334473E-05	-1.782563E-05	6.611762E-06	4.322937E-06	9.500744E-06	1.42402E-05
-1.119705E-05	-3.886812E-06	-5.179274E-06	-8.331274E-06	-1.515076E-05	-7.667877E-06	-5.548532E-06	-1.228333E-05	-3.90477E-06	2.844308E-06	-3.346423E-05	-1.718155E-05	7.401956E-06	4.122383E-06	1.102503E-05	1.540871E-05
-1.119705E-05	-3.886812E-06	-5.179274E-06	-8.331274E-06	-1.515076E-05	-7.667877E-06	-5.548532E-06	-1.228333E-05	-3.90477E-06	2.844308E-06	-3.346423E-05	-1.718155E-05	7.401956E-06	4.122383E-06	1.102503E-05	1.540871E-05
-1.173086E-05	-3.762377E-06	-6.587754E-06	-8.816543E-06	-1.652978E-05	-7.62731E-06	-4.670013E-06	-1.16842E-05	-2.423133E-06	1.7926E-06	-3.340863E-05	-1.792781E-05	8.552751E-06	4.966907E-06	1.209992E-05	1.575228E-05
-1.173086E-05	-3.762377E-06	-6.587754E-06	-8.816543E-06	-1.652978E-05	-7.62731E-06	-4.670013E-06	-1.16842E-05	-2.423133E-06	1.7926E-06	-3.340863E-05	-1.792781E-05	8.552751E-06	4.966907E-06	1.209992E-05	1.575228E-05
-1.289396E-05	-4.190922E-06	-7.485737E-06	-1.004766E-05	-1.748011E-05	-6.996124E-06	-3.42698E-06	-1.164255E-05	-1.48128E-06	9.126015E-07	-3.219051E-05	-1.869039E-05	1.016521E-05	4.540088E-06	1.258098E-05	1.379806E-05
-1.289396E-05	-4.190922E-06	-7.485737E-06	-1.004766E-05	-1.748011E-05	-6.996124E-06	-3.42698E-06	-1.164255E-05	-1.48128E-06	9.126015E-07	-3.219051E-05	-1.869039E-05	1.016521E-05	4.540088E-06	1.258098E-05	1.379806E-05
-1.370673E-05	-3.935324E-06	-7.937478E-06	-1.105274E-05	-1.722616E-05	-5.947946E-06	-2.246784E-06	-1.197292E-05	-1.391418E-06	1.448495E-06	-3.167278E-05	-1.872788E-05	1.111047E-05	1.851799E-06	1.289603E-05	1.22745E-05
-1.370673E-05	-3.935324E-06	-7.937478E-06	-1.105274E-05	-1.722616E-05	-5.947946E-06	-2.246784E-06	-1.197292E-05	-1.391418E-06	1.448495E-06	-3.167278E-05	-1.872788E-05	1.111047E-05	1.851799E-06	1.289603E-05	1.22745E-05
-1.313898E-05	-3.399473E-06	-8.061541E-06	-1.158117E-05	-1.653769E-05	-5.330399E-06	-1.044497E-06	-1.199006E-05	-2.298185E-06	3.197169E-06	-3.290378E-05	-1.77858E-05	1.013722E-05	1.407694E-07	1.401061E-05	1.178787E-05
-1.313898E-05	-3.399473E-06	-8.061541E-06	-1.158117E-05	-1.653769E-05	-5.330399E-06	-1.044497E-06	-1.199006E-05	-2.298185E-06	3.197169E-06	-3.290378E-05	-1.77858E-05	1.013722E-05	1.407694E-07	1.401061E-05	1.178787E-05
-1.232573E-05	-2.787998E-06	-7.644509E-06	-1.173651E-05	-1.5849E-05	-5.61176E-06	-4.9324E-07	-1.193028E-05	-2.384222E-06	4.680395E-06	-3.445803E-05	-1.686164E-05	8.580986E-06	1.702895E-06	1.523809E-05	1.00873E-05
-1.232573E-05	-2.787998E-06	-7.644509E-06	-1.173651E-05	-1.5849E-05	-5.61176E-06	-4.9324E-07	-1.193028E-05	-2.384222E-06	4.680395E-06	-3.445803E-05	-1.686164E-05	8.580986E-06	1.702895E-06	1.523809E-05	1.00873E-05
-1.242967E-05	-2.398995E-06	-7.010875E-06	-1.173811E-05	-1.553776E-05	-6.378505E-06	-3.717422E-07	-1.240924E-05	-6.965893E-07	4.194225E-06	-3.508853E-05	-1.635825E-05	7.975476E-06	5.382781E-06	1.509034E-05	8.720754E-06
-1.242967E-05	-2.398995E-06	-7.010875E-06	-1.173811E-05	-1.553776E-05	-6.378505E-06	-3.717422E-07	-1.240924E-05	-6.965893E-07	4.194225E-06	-3.508853E-05	-1.635825E-05	7.975476E-06	5.382781E-06	1.509034E-05	8.720754E-06
-1.28036E-05	-2.850307E-06	-6.789709E-06	-1.138711E-05	-1.618519E-05	-6.969866E-06	5.269631E-07	-1.344937E-05	-3.355168E-07	3.461472E-06	-3.496937E-05	-1.686471E-05	8.864718E-06	7.144797E-06	1.399459E-05	9.76696E-06
-1.28036E-05	-2.850307E-06	-6.789709E-06	-1.138711E-05	-1.618519E-05	-6.969866E-06	5.269631E-07	-1.344937E-05	-3.355168E-07	3.461472E-06	-3.496937E-05	-1.686471E-05	8.864718E-06	7.144797E-06	1.399459E-05	9.76696E-06
-1.279516E-05	-3.761929E-06	-6.458895E-06	-1.002182E-05	-1.752303E-05	-7.207901E-06	1.825136E-06	-1.471266E-05	-1.823418E-06	3.349216E-06	-3.428368E-05	-1.901596E-05	9.016605E-06	7.215709E-06	1.376235E-05	1.175528E-05
-1.279516E-05	-3.761929E-06	-6.458895E-06	-1.002182E-05	-1.752303E-05	-7.207901E-06	1.825136E-06	-1.471266E-05	-1.823418E-06	3.349216E-06	-3.428368E-05	-1.901596E-05	9.016605E-06	7.215709E-06	1.376235E-05	1.175528E-05
-1.256862E-05	-4.064383E-06	-5.514943E-06	-8.878201E-06	-1.844955E-05	-7.00098E-06	2.153935E-06	-1.574453E-05	-2.996576E-06	4.096712E-06	-3.374214E-05	-2.152062E-05	9.725284E-06	6.486365E-06	1.585269E-05	1.201136E-05
-1.256862E-05	-4.064383E-06	-5.514943E-06	-8.878201E-06	-1.844955E-05	-7.00098E-06	2.153935E-06	-1.574453E-05	-2.996576E-06	4.096712E-06	-3.374214E-05	-2.152062E-05	9.725284E-06	6.486365E-06	1.585269E-05	1.201136E-05
-1.242443E-05	-3.426818E-06	-4.714887E-06	-1.036458E-05	-1.826003E-05	-6.171269E-06	1.347975E-06	-1.622065E-05	-3.036914E-06	3.182837E-06	-3.40433E-05	-2.17644E-05	9.428664E-06	5.347958E-06	1.789442E-05	1.121614E-05
-1.242443E-05	-3.426818E-06	-4.714887E-06	-1.036458E-05	-1.826003E-05	-6.171269E-06	1.347975E-06	-1.622065E-05	-3.036914E-06	3.182837E-06	-3.40433E-05	-2.17644E-05	9.428664E-06	5.347958E-06	1.789442E-05	1.121614E-05
-1.238912E-05	-2.758496E-06	-4.118856E-06	-1.340529E-05	-1.699445E-05	-5.206457E-06	9.848278E-07	-1.602135E-05	-1.554569E-06	1.144722E-06	-3.467558E-05	-2.041012E-05	7.918735E-06	4.795395E-06	1.830514E-05	1.040634E-05
-1.238912E-05	-2.758496E-06	-4.118856E-06	-1.340529E-05	-1.699445E-05	-5.206457E-06	9.848278E-07	-1.602135E-05	-1.554569E-06	1.144722E-06	-3.467558E-05	-2.041012E-05	7.918735E-06	4.795395E-06	1.830514E-05	1.040634E-05
-1.233903E-05	-3.099157E-06	-3.290628E-06	-1.513672E-05	-1.479126E-05	-5.094641E-06	2.382568E-06	-1.494718E-05	1.921594E-07	9.155274E-07	-3.397184E-05	-2.049981E-05	7.583429E-06	4.649015E-06	1.745589E-05	8.994602E-06
-1.233903E-05	-3.099157E-06	-3.290628E-06	-1.513672E-05	-1.479126E-05	-5.094641E-06	2.382568E-06	-1.494718E-05	1.921594E-07	9.155274E-07	-3.397184E-05	-2.049981E-05	7.583429E-06	4.649015E-06	1.745589E-05	8.994602E-06
-1.241842E-05	-4.152858E-06	-3.641169E-06	-1.455735E-05	-1.294873E-05	-6.487002E-06	3.455111E-06	-1.34335E-05	1.552073E-07	7.955019E-07	-3.331316E-05	-2.115554E-05	8.872496E-06	4.981081E-06	1.652098E-05	8.325043E-06
-1.241842E-05	-4.152858E-06	-3.641169E-06	-1.455735E-05	-1.294873E-05	-6.487002E-06	3.455111E-06	-1.34335E-05	1.552073E-07	7.955019E-07	-3.331316E-05	-2.115554E-05	8.872496E-06	4.981081E-06	1.652098E-05	8.325043E-06
-1.270596E-05	-4.73106E-06	-5.365554E-06	-1.248764E-05	-1.297776E-05	-8.236027E-06	1.750692E-06	-1.288433E-05	-2.042679E-06	6.122625E-07	-3.375291E-05	-2.021426E-05	1.043035E-05	6.868158E-06	1.657475E-05	1.04906E-05
-1.270596E-05	-4.73106E-06	-5.365554E-06	-1.248764E-05	-1.297776E-05	-8.236027E-06	1.750692E-06	-1.288433E-05	-2.042679E-06	6.122625E-07	-3.375291E-05	-2.021426E-05	1.043035E-05	6.868158E-06	1.657475E-05	1.04906E-05
-1.305034E-05	-4.592735E-06	-5.693543E-06	-1.136617E-05	-1.390269E-05	-8.108382E-06	-1.045192E-06	-1.358932E-05	-2.25797E-06	-3.18541E-08	-3.369288E-05	-1.843089E-05	1.006437E-05	7.298492E-06	1.602569E-05	1.301499E-05
-1.305034E-05	-4.592735E-06	-5.693543E-06	-1.136617E-05	-1.390269E-05	-8.108382E-06	-1.045192E-06	-1.358932E-05	-2.25797E-06	-3.18541E-08	-3.369288E-05	-1.843089E-05	1.006437E-05	7.298492E-06	1.602569E-05	1.301499E-05
-1.367181E-05	-5.093132E-06	-4.143189E-06	-1.177506E-05	-1.479738E-05	-6.453856E-06	-2.443036E-06	-1.40314E-05	1.376942E-06	-1.934927E-07	-3.26005E-05	-1.692194E-05	9.626586E-06	6.675007E-06	1.440205E-05	1.107487E-05
-1.367181E-05	-5.093132E-06	-4.143189E-06	-1.177506E-05	-1.479738E-05	-6.453856E-06	-2.443036E-06	-1.40314E-05	1.376942E-06	-1.934927E-07	-3.26005E-05	-1.692194E-05	9.626586E-06	6.675007E-06	1.440205E-05	1.107487E-05
-1.485089E-05	-7.511739E-06	-2.714383E-06	-1.178666E-05	-1.586317E-05	-5.234152E-06	-2.822486E-06	-1.345967E-05	6.519587E-06	9.78906E-07	-3.090969E-05	-1.57096E-05	1.002937E-05	6.565653E-06	1.320327E-05	8.513347E-06
-1.485089E-05	-7.511739E-06	-2.714383E-06	-1.178666E-05	-1.586317E-05	-5.234152E-06	-2.822486E-06	-1.345967E-05	6.519587E-06	9.78906E-07	-3.090969E-05	-1.57096E-05	1.002937E-05	6.565653E-06	1.320327E-05	8.513347E-06
-1.610778E-05	-1.168453E-05	-1.774266E-06	-1.126045E-05	-1.598473E-05	-4.826528E-06	-3.437549E-06	-1.257527E-05	8.271874E-06	1.902273E-06	-3.024916E-05	-1.626726E-05	1.026474E-05	6.84315E-06	1.365236E-05	8.735057E-06
-1.610778E-05	-1.168453E-05	-1.774266E-06	-1.126045E-05	-1.598473E-05	-4.826528E-06	-3.437549E-06	-1.257527E-05	8.271874E-06	1.902273E-06	-3.024916E-05	-1.626726E-05	1.026474E-05	6.84315E-06	1.365236E-05	8.735057E-06
-1.642481E-05	-1.63802E-05	-8.570645E-07	-1.149876E-05	-1.449522E-05	-5.079635E-06	-3.993851E-06	-1.172006E-05	6.838351E-06	1.887334E-06	-2.899822E-05	-1.871459E-05	9.61438E-06	6.999344E-06	1.518763E-05	1.11185E-05
-1.642481E-05	-1.63802E-05	-8.570645E-07	-1.149876E-05	-1.449522E-05	-5.079635E-06	-3.993851E-06	-1.172006E-05	6.838351E-06	1.887334E-06	-2.899822E-05	-1.871459E-05	9.61438E-06	6.999344E-06	1.518763E-05	1.11185E-05
-1.570081E-05	-1.890724E-05	-2.837035E-07	-1.280779E-05	-1.285891E-05	-5.930568E-06	-3.771295E-06	-1.102852E-05	4.277974E-06	2.235232E-06	-2.755175E-05	-2.040324E-05	9.774209E-06	7.018495E-06	1.588002E-05	1.271702E-05
-1.570081E-05	-1.890724E-05	-2.837035E-07	-1.280779E-05	-1.285891E-05	-5.930568E-06	-3.771295E-06	-1.102852E-05	4.277974E-06	2.235232E-06	-2.755175E-05	-2.040324E-05	9.774209E-06	7.018495E-06	1.588002E-05	1.271702E-05
-1.501674E-05	-1.643476E-05	-6.032071E-07	-1.45936E-05	-1.264476E-05	-6.616653E-06	-3.219635E-06	-1.120901E-05	2.419109E-06	3.808763E-06	-2.720699E-05	-2.066031E-05	9.759487E-06	6.013405E-06	1.522354E-05	1.233003E-05
-1.501674E-05	-1.643476E-05	-6.032071E-07	-1.45936E-05	-1.264476E-05	-6.616653E-06	-3.219635E-06	-1.120901E-05	2.419109E-06	3.808763E-06	-2.720699E-05	-2.066031E-05	9.759487E-06	6.013405E-06	1.522354E-05	1.233003E-05
-1.434854E-05	-1.094633E-05	-1.846887E-06	-1.59609E-05	-1.37137E-05	-6.544187E-06	-3.116767E-06	-1.248221E-05	2.205053E-06	5.064232E-06	-2.803963E-05	-1.992519E-05	8.472998E-06	3.566347E-06	1.286821E-05	1.160261E-05
-1.434854E-05	-1.094633E-05	-1.846887E-06	-1.59609E-05	-1.37137E-05	-6.544187E-06	-3.116767E-06	-1.248221E-05	2.205053E-06	5.064232E-06	-2.803963E-05	-1.992519E-05	8.472998E-06	3.566347E-06	1.286821E-05	1.160261E-05
-1.310621E-05	-7.665103E-06	-3.251445E-06	-1.643807E-05	-1.457062E-05	-6.24685E-06	-3.720892E-06	-1.438758E-05	2.740061E-06	5.034441E-06	-2.840795E-05	-1.96598E-05	7.936107E-06	3.536546E-06	9.472976E-06	1.120971E-05
-1.310621E-05	-7.665103E-06	-3.251445E-06	-1.643807E-05	-1.457062E-05	-6.24685E-06	-3.720892E-06	-1.438758E-05	2.740061E-06	5.034441E-06	-2.840795E-05	-1.96598E-05	7.936107E-06	3.536546E-06	9.472976E-06	1.120971E-05
-1.262383E-05	-7.661106E-06	-3.876196E-06	-1.655845E-05	-1.419221E-05	-6.785342E-06	-4.711207E-06	-1.661707E-05	2.526787E-06	4.419705E-06	-2.725818E-05	-2.02969E-05	8.147277E-06	5.379374E-06	6.883225E-06	1.15786E-05
-1.262383E-05	-7.661106E-06	-3.876196E-06	-1.655845E-05	-1.419221E-05	-6.785342E-06	-4.711207E-06	-1.661707E-05	2.526787E-06	4.419705E-06	-2.725818E-05	-2.02969E-05	8.147277E-06	5.379374E-06	6.883225E-06	1.15786E-05
-1.361073E-05	-8.31611E-06	-3.829782E-06	-1.662297E-05	-1.356502E-05	-7.811705E-06	-5.124011E-06	-1.838368E-05	1.821758E-06	3.875111E-06	-2.66668E-05	-2.079695E-05	7.96619E-06	7.127476E-06	6.465698E-06	1.229468E-05
-1.361073E-05	-8.31611E-06	-3.829782E-06	-1.662297E-05	-1.356502E-05	-7.811705E-06	-5.124011E-06	-1.838368E-05	1.821758E-06	3.875111E-06	-2.66668E-05	-2.079695E-05	7.96619E-06	7.127476E-06	6.465698E-06	1.229468E-05
-1.446469E-05	-7.962262E-06	-4.042855E-06	-1.598707E-05	-1.451203E-05	-7.844293E-06	-4.072758E-06	-1.851691E-05	1.874889E-06	4.095967E-06	-2.729556E-05	-1.886886E-05	6.797222E-06	8.353755E-06	8.047356E-06	1.256048E-05
-1.446469E-05	-7.962262E-06	-4.042855E-06	-1.598707E-05	-1.451203E-05	-7.844293E-06	-4.072758E-06	-1.851691E-05	1.874889E-06	4.095967E-06	-2.729556E-05	-1.886886E-05	6.797222E-06	8.353755E-06	8.047356E-06	1.256048E-05
-1.446094E-05	-6.716534E-06	-4.606028E-06	-1.457539E-05	-1.6715E-05	-7.099638E-06	-1.840763E-06	-1.719295E-05	1.347271E-06	4.304104E-06	-2.829462E-05	-1.634333E-05	6.682201E-06	8.885057E-06	1.032907E-05	1.239313E-05
-1.446094E-05	-6.716534E-06	-4.606028E-06	-1.457539E-05	-1.6715E-05	-7.099638E-06	-1.840763E-06	-1.719295E-05	1.347271E-06	4.304104E-06	-2.829462E-05	-1.634333E-05	6.682201E-06	8.885057E-06	1.032907E-05	1.239313E-05
-1.427905E-05	-5.697477E-06	-5.119702E-06	-1.264219E-05	-1.817613E-05	-6.711747E-06	5.002642E-08	-1.566878E-05	2.651776E-07	3.873681E-06	-2.908056E-05	-1.633556E-05	7.39372E-06	7.300716E-06	1.155877E-05	1.373814E-05
-1.427905E-05	-5.697477E-06	-5.119702E-06	-1.264219E-05	-1.817613E-05	-6.711747E-06	5.002642E-08	-1.566878E-05	2.651776E-07	3.873681E-06	-2.908056E-05	-1.633556E-05	7.39372E-06	7.300716E-06	1.155877E-05	1.373814E-05
-1.421461E-05	-5.438506E-06	-5.875265E-06	-9.686458E-06	-1.811836E-05	-6.432462E-06	1.290254E-07	-1.44501E-05	-6.753851E-07	3.471361E-06	-2.941507E-05	-1.792108E-05	7.981731E-06	5.31198E-06	1.09309E-05	1.461986E-05
-1.421461E-05	-5.438506E-06	-5.875265E-06	-9.686458E-06	-1.811836E-05	-6.432462E-06	1.290254E-07	-1.44501E-05	-6.753851E-07	3.471361E-06	-2.941507E-05	-1.792108E-05	7.981731E-06	5.31198E-06	1.09309E-05	1.461986E-05
-1.414074E-05	-4.446164E-06	-7.053121E-06	-6.03196E-06	-1.758773E-05	-5.912303E-06	-1.428788E-06	-1.301108E-05	-7.381682E-07	1.912723E-06	-2.976209E-05	-1.975869E-05	7.786798E-06	5.281279E-06	9.006106E-06	1.350506E-05
-1.414074E-05	-4.446164E-06	-7.053121E-06	-6.03196E-06	-1.758773E-05	-5.912303E-06	-1.428788E-06	-1.301108E-05	-7.381682E-07	1.912723E-06	-2.976209E-05	-1.975869E-05	7.786798E-06	5.281279E-06	9.006106E-06	1.350506E-05
-1.38256E-05	-1.489041E-06	-7.672999E-06	-3.37858E-06	-1.763728E-05	-5.514162E-06	-3.123625E-06	-1.115228E-05	2.362103E-08	3.19803E-07	-3.082563E-05	-2.004903E-05	6.514054E-06	5.982361E-06	8.101613E-06	1.212588E-05
-1.38256E-05	-1.489041E-06	-7.672999E-06	-3.37858E-06	-1.763728E-05	-5.514162E-06	-3.123625E-06	-1.115228E-05	2.362103E-08	3.19803E-07	-3.082563E-05	-2.004903E-05	6.514054E-06	5.982361E-06	8.101613E-06	1.212588E-05
-1.313037E-05	1.490593E-06	-6.410718E-06	-2.808094E-06	-1.777465E-05	-5.346909E-06	-3.895468E-06	-9.667247E-06	1.102842E-06	1.600709E-06	-3.03695E-05	-1.844648E-05	5.925383E-06	6.222853E-06	8.765253E-06	1.216787E-05
-1.313037E-05	1.490593E-06	-6.410718E-06	-2.808094E-06	-1.777465E-05	-5.346909E-06	-3.895468E-06	-9.667247E-06	1.102842E-06	1.600709E-06	-3.03695E-05	-1.844648E-05	5.925383E-06	6.222853E-06	8.765253E-06	1.216787E-05
-1.235668E-05	2.039102E-06	-4.31924E-06	-3.820239E-06	-1.732765E-05	-5.399512E-06	-3.503132E-06	-8.919713E-06	7.142839E-07	3.004167E-06	-2.956187E-05	-1.772813E-05	6.661423E-06	6.638435E-06	8.326942E-06	1.074122E-05
-1.235668E-05	2.039102E-06	-4.31924E-06	-3.820239E-06	-1.732765E-05	-5.399512E-06	-3.503132E-06	-8.919713E-06	7.142839E-07	3.004167E-06	-2.956187E-05	-1.772813E-05	6.661423E-06	6.638435E-06	8.326942E-06	1.074122E-05
-1.190587E-05	3.567306E-07	-3.836366E-06	-5.438314E-06	-1.676163E-05	-5.802313E-06	-2.219574E-06	-8.783517E-06	-1.552427E-08	1.626752E-06	-2.917799E-05	-1.879973E-05	8.189339E-06	7.036554E-06	6.623004E-06	8.373616E-06
-1.190587E-05	3.567306E-07	-3.836366E-06	-5.438314E-06	-1.676163E-05	-5.802313E-06	-2.219574E-06	-8.783517E-06	-1.552427E-08	1.626752E-06	-2.917799E-05	-1.879973E-05	8.189339E-06	7.036554E-06	6.623004E-06	8.373616E-06
-1.168435E-05	-1.755202E-06	-4.355994E-06	-7.360661E-06	-1.653912E-05	-6.396303E-06	-9.098375E-07	-1.007414E-05	5.029677E-07	7.356841E-07	-2.928887E-05	-2.013535E-05	9.370954E-06	7.410199E-06	6.111273E-06	8.02912E-06
-1.168435E-05	-1.755202E-06	-4.355994E-06	-7.360661E-06	-1.653912E-05	-6.396303E-06	-9.098375E-07	-1.007414E-05	5.029677E-07	7.356841E-07	-2.928887E-05	-2.013535E-05	9.370954E-06	7.410199E-06	6.111273E-06	8.02912E-06
-1.1604E-05	-2.766486E-06	-3.989293E-06	-8.935919E-06	-1.642988E-05	-6.602548E-06	-3.035753E-07	-1.254008E-05	1.715182E-06	2.336599E-06	-2.974638E-05	-1.999892E-05	1.020108E-05	7.444852E-06	6.04498E-06	9.153326E-06
-1.1604E-05	-2.766486E-06	-3.989293E-06	-8.935919E-06	-1.642988E-05	-6.602548E-06	-3.035753E-07	-1.254008E-05	1.715182E-06	2.336599E-06	-2.974638E-05	-1.999892E-05	1.020108E-05	7.444852E-06	6.04498E-06	9.153326E-06
-1.191688E-05	-2.533467E-06	-3.164198E-06	-9.056705E-06	-1.60794E-05	-6.057727E-06	-2.760457E-07	-1.401097E-05	7.121201E-07	3.917855E-06	-2.936887E-05	-1.792414E-05	9.795138E-06	6.394212E-06	6.822133E-06	1.054381E-05
-1.191688E-05	-2.533467E-06	-3.164198E-06	-9.056705E-06	-1.60794E-05	-6.057727E-06	-2.760457E-07	-1.401097E-05	7.121201E-07	3.917855E-06	-2.936887E-05	-1.792414E-05	9.795138E-06	6.394212E-06	6.822133E-06	1.054381E-05
-1.245791E-05	-2.479113E-06	-3.190299E-06	-8.324905E-06	-1.58107E-05	-5.292576E-06	-9.749591E-07	-1.36483E-05	-2.491454E-07	2.092351E-06	-2.923102E-05	-1.753697E-05	9.094782E-06	3.474303E-06	8.246165E-06	1.060326E-05
-1.245791E-05	-2.479113E-06	-3.190299E-06	-8.324905E-06	-1.58107E-05	-5.292576E-06	-9.749591E-07	-1.36483E-05	-2.491454E-07	2.092351E-06	-2.923102E-05	-1.753697E-05	9.094782E-06	3.474303E-06	8.246165E-06	1.060326E-05
-1.269778E-05	-3.920422E-06	-4.211551E-06	-8.02769E-06	-1.623292E-05	-5.163881E-06	-2.697595E-06	-1.228402E-05	-9.875709E-08	5.282286E-07	-2.974029E-05	-1.672894E-05	9.338433E-06	3.219076E-06	8.485978E-06	9.441822E-06
-1.269778E-05	-3.920422E-06	-4.211551E-06	-8.02769E-06	-1.623292E-05	-5.163881E-06	-2.697595E-06	-1.228402E-05	-9.875709E-08	5.282286E-07	-2.974029E-05	-1.672894E-05	9.338433E-06	3.219076E-06	8.485978E-06	9.441822E-06
-1.227896E-05	-5.70535E-06	-4.542006E-06	-7.974752E-06	-1.711505E-05	-5.970674E-06	-3.560962E-06	-1.12325E-05	-1.289626E-06	5.338321E-07	-2.930074E-05	-1.585863E-05	8.619839E-06	5.63488E-06	8.607628E-06	9.105105E-06
-1.227896E-05	-5.70535E-06	-4.542006E-06	-7.974752E-06	-1.711505E-05	-5.970674E-06	-3.560962E-06	-1.12325E-05	-1.289626E-06	5.338321E-07	-2.930074E-05	-1.585863E-05	8.619839E-06	5.63488E-06	8.607628E-06	9.105105E-06
-1.134279E-05	-5.808899E-06	-3.53504E-06	-7.805498E-06	-1.810355E-05	-7.051524E-06	-2.464202E-06	-1.157553E-05	-1.344398E-06	2.007481E-06	-2.837042E-05	-1.707355E-05	8.03786E-06	7.947297E-06	8.779297E-06	1.010132E-05
-1.134279E-05	-5.808899E-06	-3.53504E-06	-7.805498E-06	-1.810355E-05	-7.051524E-06	-2.464202E-06	-1.157553E-05	-1.344398E-06	2.007481E-06	-2.837042E-05	-1.707355E-05	8.03786E-06	7.947297E-06	8.779297E-06	1.010132E-05
-1.062052E-05	-4.614015E-06	-3.179756E-06	-8.003683E-06	-1.889499E-05	-7.064933E-06	-1.830431E-06	-1.28241E-05	-3.355562E-07	4.563984E-06	-2.904323E-05	-1.855003E-05	6.746578E-06	8.294457E-06	8.709043E-06	1.147149E-05
-1.062052E-05	-4.614015E-06	-3.179756E-06	-8.003683E-06	-1.889499E-05	-7.064933E-06	-1.830431E-06	-1.28241E-05	-3.355562E-07	4.563984E-06	-2.904323E-05	-1.855003E-05	6.746578E-06	8.294457E-06	8.709043E-06	1.147149E-05
-1.047004E-05	-3.551753E-06	-3.697558E-06	-9.120467E-06	-1.82363E-05	-5.615895E-06	-2.349339E-06	-1.435796E-05	-1.715091E-07	4.246732E-06	-2.934292E-05	-1.906974E-05	7.096452E-06	5.658284E-06	1.03603E-05	1.157638E-05
-1.047004E-05	-3.551753E-06	-3.697558E-06	-9.120467E-06	-1.82363E-05	-5.615895E-06	-2.349339E-06	-1.435796E-05	-1.715091E-07	4.246732E-06	-2.934292E-05	-1.906974E-05	7.096452E-06	5.658284E-06	1.03603E-05	1.157638E-05
-1.07015E-05	-3.231518E-06	-3.766112E-06	-1.089914E-05	-1.657759E-05	-3.897994E-06	-2.562768E-06	-1.581086E-05	2.79647E-07	2.409656E-06	-2.936355E-05	-1.854991E-05	9.743167E-06	3.239867E-06	1.28368E-05	1.064825E-05
-1.07015E-05	-3.231518E-06	-3.766112E-06	-1.089914E-05	-1.657759E-05	-3.897994E-06	-2.562768E-06	-1.581086E-05	2.79647E-07	2.409656E-06	-2.936355E-05	-1.854991E-05	9.743167E-06	3.239867E-06	1.28368E-05	1.064825E-05
-1.112293E-05	-3.806088E-06	-3.813756E-06	-1.227794E-05	-1.660138E-05	-3.231407E-06	-2.941294E-06	-1.619094E-05	1.823791E-06	1.385809E-06	-2.938713E-05	-1.83892E-05	1.018085E-05	1.235694E-06	1.424738E-05	1.150355E-05
-1.112293E-05	-3.806088E-06	-3.813756E-06	-1.227794E-05	-1.660138E-05	-3.231407E-06	-2.941294E-06	-1.619094E-05	1.823791E-06	1.385809E-06	-2.938713E-05	-1.83892E-05	1.018085E-05	1.235694E-06	1.424738E-05	1.150355E-05
-1.111322E-05	-4.491175E-06	-3.918728E-06	-1.279433E-05	-1.801996E-05	-3.832572E-06	-3.764879E-06	-1.621854E-05	2.888738E-06	2.38236E-06	-3.056991E-05	-1.796184E-05	8.837779E-06	6.824105E-07	1.508307E-05	1.273833E-05
-1.111322E-05	-4.491175E-06	-3.918728E-06	-1.279433E-05	-1.801996E-05	-3.832572E-06	-3.764879E-06	-1.621854E-05	2.888738E-06	2.38236E-06	-3.056991E-05	-1.796184E-05	8.837779E-06	6.824105E-07	1.508307E-05	1.273833E-05
-1.080253E-05	-4.094747E-06	-3.499412E-06	-1.267494E-05	-1.804874E-05	-4.936964E-06	-4.120706E-06	-1.740971E-05	2.319177E-06	3.18333E-06	-3.130138E-05	-1.750339E-05	7.233359E-06	1.223734E-06	1.482769E-05	1.282202E-05
-1.080253E-05	-4.094747E-06	-3.499412E-06	-1.267494E-05	-1.804874E-05	-4.936964E-06	-4.120706E-06	-1.740971E-05	2.319177E-06	3.18333E-06	-3.130138E-05	-1.750339E-05	7.233359E-06	1.223734E-06	1.482769E-05	1.282202E-05
-1.174431E-05	-2.674261E-06	-3.314192E-06	-1.199946E-05	-1.627932E-05	-5.666927E-06	-4.018961E-06	-1.873486E-05	1.830539E-06	2.310268E-06	-3.058853E-05	-1.782042E-05	6.254312E-06	2.64492E-06	1.556234E-05	1.263742E-05
-1.174431E-05	-2.674261E-06	-3.314192E-06	-1.199946E-05	-1.627932E-05	-5.666927E-06	-4.018961E-06	-1.873486E-05	1.830539E-06	2.310268E-06	-3.058853E-05	-1.782042E-05	6.254312E-06	2.64492E-06	1.556234E-05	1.263742E-05
-1.350893E-05	-1.252689E-06	-3.795657E-06	-1.15091E-05	-1.458203E-05	-5.768825E-06	-3.60494E-06	-1.835141E-05	1.692592E-06	1.199897E-06	-3.019645E-05	-1.840789E-05	6.891732E-06	3.506592E-06	1.557332E-05	1.271867E-05
-1.350893E-05	-1.252689E-06	-3.795657E-06	-1.15091E-05	-1.458203E-05	-5.768825E-06	-3.60494E-06	-1.835141E-05	1.692592E-06	1.199897E-06	-3.019645E-05	-1.840789E-05	6.891732E-06	3.506592E-06	1.557332E-05	1.271867E-05
-1.413213E-05	-9.380556E-07	-4.29175E-06	-1.196739E-05	-1.439478E-05	-5.59343E-06	-2.567257E-06	-1.633346E-05	1.170257E-06	4.605259E-07	-3.020924E-05	-1.757112E-05	8.389885E-06	4.199231E-06	1.543909E-05	1.214195E-05
-1.413213E-05	-9.380556E-07	-4.29175E-06	-1.196739E-05	-1.439478E-05	-5.59343E-06	-2.567257E-06	-1.633346E-05	1.170257E-06	4.605259E-07	-3.020924E-05	-1.757112E-05	8.389885E-06	4.199231E-06	1.543909E-05	1.214195E-05
-1.431538E-05	-2.478027E-06	-4.736497E-06	-1.230823E-05	-1.530286E-05	-5.502241E-06	-1.375186E-06	-1.422381E-05	1.006168E-06	2.366728E-07	-3.1519E-05	-1.646835E-05	9.261445E-06	4.67603E-06	1.599105E-05	1.223707E-05
-1.431538E-05	-2.478027E-06	-4.736497E-06	-1.230823E-05	-1.530286E-05	-5.502241E-06	-1.375186E-06	-1.422381E-05	1.006168E-06	2.366728E-07	-3.1519E-05	-1.646835E-05	9.261445E-06	4.67603E-06	1.599105E-05	1.223707E-05
-1.504385E-05	-5.137834E-06	-5.208602E-06	-1.111197E-05	-1.631177E-05	-5.53453E-06	-1.276727E-06	-1.321062E-05	1.085751E-06	-2.531388E-07	-3.29603E-05	-1.614911E-05	9.729287E-06	5.413813E-06	1.621773E-05	1.174568E-05
-1.504385E-05	-5.137834E-06	-5.208602E-06	-1.111197E-05	-1.631177E-05	-5.53453E-06	-1.276727E-06	-1.321062E-05	1.085751E-06	-2.531388E-07	-3.29603E-05	-1.614911E-05	9.729287E-06	5.413813E-06	1.621773E-05	1.174568E-05
-1.506254E-05	-6.95276E-06	-5.118406E-06	-8.706697E-06	-1.705215E-05	-5.671299E-06	-2.640225E-06	-1.294422E-05	8.380906E-07	2.484839E-07	-3.443737E-05	-1.632491E-05	9.554765E-06	6.58627E-06	1.573042E-05	1.048207E-05
-1.506254E-05	-6.95276E-06	-5.118406E-06	-8.706697E-06	-1.705215E-05	-5.671299E-06	-2.640225E-06	-1.294422E-05	8.380906E-07	2.484839E-07	-3.443737E-05	-1.632491E-05	9.554765E-06	6.58627E-06	1.573042E-05	1.048207E-05
-1.404681E-05	-6.920542E-06	-4.171757E-06	-6.619154E-06	-1.684621E-05	-6.159814E-06	-3.819988E-06	-1.221124E-05	7.290246E-07	1.952596E-06	-3.537487E-05	-1.763493E-05	8.236511E-06	6.955742E-06	1.501284E-05	1.080972E-05
-1.404681E-05	-6.920542E-06	-4.171757E-06	-6.619154E-06	-1.684621E-05	-6.159814E-06	-3.819988E-06	-1.221124E-05	7.290246E-07	1.952596E-06	-3.537487E-05	-1.763493E-05	8.236511E-06	6.955742E-06	1.501284E-05	1.080972E-05
-1.296159E-05	-5.969317E-06	-3.048178E-06	-6.344436E-06	-1.576818E-05	-7.068249E-06	-3.483583E-06	-1.072398E-05	1.053706E-06	3.895445E-06	-3.566542E-05	-1.901539E-05	6.378152E-06	5.963564E-06	1.508539E-05	1.228718E-05
-1.296159E-05	-5.969317E-06	-3.048178E-06	-6.344436E-06	-1.576818E-05	-7.068249E-06	-3.483583E-06	-1.072398E-05	1.053706E-06	3.895445E-06	-3.566542E-05	-1.901539E-05	6.378152E-06	5.963564E-06	1.508539E-05	1.228718E-05
-1.211409E-05	-5.512664E-06	-2.851848E-06	-8.293039E-06	-1.543738E-05	-8.034841E-06	-2.805271E-06	-9.592717E-06	1.95743E-07	5.146567E-06	-3.541899E-05	-1.881325E-05	6.059982E-06	4.665108E-06	1.582657E-05	1.325341E-05
-1.211409E-05	-5.512664E-06	-2.851848E-06	-8.293039E-06	-1.543738E-05	-8.034841E-06	-2.805271E-06	-9.592717E-06	1.95743E-07	5.146567E-06	-3.541899E-05	-1.881325E-05	6.059982E-06	4.665108E-06	1.582657E-05	1.325341E-05
-1.176668E-05	-5.29098E-06	-3.9214E-06	-1.110457E-05	-1.611557E-05	-9.032292E-06	-3.130654E-06	-9.582489E-06	-1.656211E-06	5.905222E-06	-3.56644E-05	-1.748284E-05	6.34252E-06	5.078311E-06	1.605539E-05	1.257893E-05
-1.176668E-05	-5.29098E-06	-3.9214E-06	-1.110457E-05	-1.611557E-05	-9.032292E-06	-3.130654E-06	-9.582489E-06	-1.656211E-06	5.905222E-06	-3.56644E-05	-1.748284E-05	6.34252E-06	5.078311E-06	1.605539E-05	1.257893E-05
-1.189024E-05	-4.091654E-06	-5.473575E-06	-1.310759E-05	-1.6517E-05	-1.014133E-05	-3.903672E-06	-1.029633E-05	-2.547056E-06	6.426487E-06	-3.629343E-05	-1.720472E-05	5.799404E-06	6.361875E-06	1.584558E-05	1.023563E-05
-1.189024E-05	-4.091654E-06	-5.473575E-06	-1.310759E-05	-1.6517E-05	-1.014133E-05	-3.903672E-06	-1.029633E-05	-2.547056E-06	6.426487E-06	-3.629343E-05	-1.720472E-05	5.799404E-06	6.361875E-06	1.584558E-05	1.023563E-05
-1.139332E-05	-1.987722E-06	-6.429686E-06	-1.430969E-05	-1.651755E-05	-1.073701E-05	-3.774621E-06	-1.125885E-05	-2.587662E-06	6.988054E-06	-3.596422E-05	-1.720322E-05	5.190851E-06	8.018402E-06	1.603604E-05	8.400755E-06
-1.139332E-05	-1.987722E-06	-6.429686E-06	-1.430969E-05	-1.651755E-05	-1.073701E-05	-3.774621E-06	-1.125885E-05	-2.587662E-06	6.988054E-06	-3.596422E-05	-1.720322E-05	5.190851E-06	8.018402E-06	1.603604E-05	8.400755E-06
-1.031067E-05	4.964269E-07	-6.10399E-06	-1.51684E-05	-1.656478E-05	-1.026414E-05	-2.560967E-06	-1.232821E-05	-3.186857E-06	6.967899E-06	-3.47411E-05	-1.728588E-05	5.213491E-06	7.66123E-06	1.597138E-05	9.27414E-06
-1.031067E-05	4.964269E-07	-6.10399E-06	-1.51684E-05	-1.656478E-05	-1.026414E-05	-2.560967E-06	-1.232821E-05	-3.186857E-06	6.967899E-06	-3.47411E-05	-1.728588E-05	5.213491E-06	7.66123E-06	1.597138E-05	9.27414E-06
-1.003061E-05	2.746281E-06	-4.693084E-06	-1.537978E-05	-1.651737E-05	-9.131757E-06	-1.679977E-06	-1.373088E-05	-4.165473E-06	5.162748E-06	-3.292118E-05	-1.75527E-05	5.195545E-06	5.518252E-06	1.675182E-05	1.075846E-05
-1.003061E-05	2.746281E-06	-4.693084E-06	-1.537978E-05	-1.651737E-05	-9.131757E-06	-1.679977E-06	-1.373088E-05	-4.165473E-06	5.162748E-06	-3.292118E-05	-1.75527E-05	5.195545E-06	5.518252E-06	1.675182E-05	1.075846E-05
-1.031943E-05	2.864049E-06	-3.394071E-06	-1.51787E-05	-1.640617E-05	-8.306331E-06	-2.367741E-06	-1.596132E-05	-4.743285E-06	4.021641E-06	-3.279707E-05	-1.694999E-05	5.384189E-06	4.604221E-06	1.744712E-05	1.070595E-05
-1.031943E-05	2.864049E-06	-3.394071E-06	-1.51787E-05	-1.640617E-05	-8.306331E-06	-2.367741E-06	-1.596132E-05	-4.743285E-06	4.021641E-06	-3.279707E-05	-1.694999E-05	5.384189E-06	4.604221E-06	1.744712E-05	1.070595E-05
-1.003715E-05	1.957243E-07	-3.144361E-06	-1.535673E-05	-1.633463E-05	-8.249074E-06	-3.995366E-06	-1.825769E-05	-4.804376E-06	5.102474E-06	-3.4937E-05	-1.628367E-05	6.908791E-06	5.071136E-06	1.714807E-05	1.046088E-05
-1.003715E-05	1.957243E-07	-3.144361E-06	-1.535673E-05	-1.633463E-05	-8.249074E-06	-3.995366E-06	-1.825769E-05	-4.804376E-06	5.102474E-06	-3.4937E-05	-1.628367E-05	6.908791E-06	5.071136E-06	1.714807E-05	1.046088E-05
-9.375291E-06	-2.936235E-06	-3.588126E-06	-1.602676E-05	-1.613016E-05	-8.491273E-06	-4.890219E-06	-1.889346E-05	-4.608405E-06	6.538568E-06	-3.520957E-05	-1.596878E-05	8.258543E-06	4.530792E-06	1.709972E-05	1.067145E-05
-9.375291E-06	-2.936235E-06	-3.588126E-06	-1.602676E-05	-1.613016E-05	-8.491273E-06	-4.890219E-06	-1.889346E-05	-4.608405E-06	6.538568E-06	-3.520957E-05	-1.596878E-05	8.258543E-06	4.530792E-06	1.709972E-05	1.067145E-05
-9.232139E-06	-4.515844E-06	-3.660536E-06	-1.595631E-05	-1.577452E-05	-8.868567E-06	-4.804885E-06	-1.765374E-05	-3.032931E-06	5.403268E-06	-3.496514E-05	-1.649926E-05	8.486891E-06	3.079653E-06	1.945574E-05	1.049309E-05
-9.232139E-06	-4.515844E-06	-3.660536E-06	-1.595631E-05	-1.577452E-05	-8.868567E-06	-4.804885E-06	-1.765374E-05	-3.032931E-06	5.403268E-06	-3.496514E-05	-1.649926E-05	8.486891E-06	3.079653E-06	1.945574E-05	1.049309E-05
-1.019523E-05	-4.280718E-06	-2.82239E-06	-1.337725E-05	-1.497971E-05	-9.836834E-06	-4.587339E-06	-1.54331E-05	-3.390652E-06	3.652131E-06	-3.476806E-05	-1.657925E-05	8.065103E-06	3.933356E-06	1.869138E-05	1.008854E-05
-1.019523E-05	-4.280718E-06	-2.82239E-06	-1.337725E-05	-1.497971E-05	-9.836834E-06	-4.587339E-06	-1.54331E-05	-3.390652E-06	3.652131E-06	-3.476806E-05	-1.657925E-05	8.065103E-06	3.933356E-06	1.869138E-05	1.008854E-05
-1.165403E-05	-2.576808E-06	-2.067881E-06	-8.763777E-06	-1.337913E-05	-1.079439E-05	-4.263695E-06	-1.344953E-05	-4.84855E-06	4.274237E-06	-3.296799E-05	-1.674472E-05	7.636666E-06	7.305467E-06	1.455047E-05	1.057135E-05
-1.165403E-05	-2.576808E-06	-2.067881E-06	-8.763777E-06	-1.337913E-05	-1.079439E-05	-4.263695E-06	-1.344953E-05	-4.84855E-06	4.274237E-06	-3.296799E-05	-1.674472E-05	7.636666E-06	7.305467E-06	1.455047E-05	1.057135E-05
-1.206024E-05	-1.11847E-06	-2.398057E-06	-4.35349E-06	-1.230025E-05	-1.071828E-05	-3.924222E-06	-1.234359E-05	-2.885145E-06	6.208704E-06	-3.21564E-05	-1.760047E-05	7.925811E-06	9.895286E-06	1.143118E-05	1.239453E-05
-1.206024E-05	-1.11847E-06	-2.398057E-06	-4.35349E-06	-1.230025E-05	-1.071828E-05	-3.924222E-06	-1.234359E-05	-2.885145E-06	6.208704E-06	-3.21564E-05	-1.760047E-05	7.925811E-06	9.895286E-06	1.143118E-05	1.239453E-05
-1.124458E-05	-1.597753E-06	-2.691258E-06	-1.059724E-06	-1.32745E-05	-1.006231E-05	-4.019713E-06	-1.129034E-05	-9.264913E-08	6.121361E-06	-3.278235E-05	-1.769618E-05	8.335947E-06	1.052077E-05	1.116564E-05	1.184168E-05
-1.124458E-05	-1.597753E-06	-2.691258E-06	-1.059724E-06	-1.32745E-05	-1.006231E-05	-4.019713E-06	-1.129034E-05	-9.264913E-08	6.121361E-06	-3.278235E-05	-1.769618E-05	8.335947E-06	1.052077E-05	1.116564E-05	1.184168E-05
-1.068563E-05	-2.539119E-06	-1.557536E-06	5.125295E-07	-1.510188E-05	-9.634875E-06	-4.119998E-06	-1.120417E-05	1.525055E-06	4.243967E-06	-3.292666E-05	-1.819528E-05	9.111509E-06	9.864559E-06	1.16685E-05	1.080011E-05
-1.068563E-05	-2.539119E-06	-1.557536E-06	5.125295E-07	-1.510188E-05	-9.634875E-06	-4.119998E-06	-1.120417E-05	1.525055E-06	4.243967E-06	-3.292666E-05	-1.819528E-05	9.111509E-06	9.864559E-06	1.16685E-05	1.080011E-05
-1.089564E-05	-2.416164E-06	1.275081E-07	-1.665409E-07	-1.598601E-05	-9.733783E-06	-3.875665E-06	-1.294137E-05	1.203329E-06	2.396955E-06	-3.262589E-05	-1.829289E-05	1.011266E-05	8.611319E-06	1.080693E-05	1.012815E-05
-1.089564E-05	-2.416164E-06	1.275081E-07	-1.665409E-07	-1.598601E-05	-9.733783E-06	-3.875665E-06	-1.294137E-05	1.203329E-06	2.396955E-06	-3.262589E-05	-1.829289E-05	1.011266E-05	8.611319E-06	1.080693E-05	1.012815E-05
-1.093042E-05	-2.362394E-06	6.114288E-07	-2.079921E-06	-1.602965E-05	-1.041041E-05	-3.683621E-06	-1.378355E-05	-9.861333E-08	5.105438E-07	-3.345625E-05	-1.956919E-05	1.129868E-05	7.125057E-06	1.134346E-05	9.853686E-06
-1.093042E-05	-2.362394E-06	6.114288E-07	-2.079921E-06	-1.602965E-05	-1.041041E-05	-3.683621E-06	-1.378355E-05	-9.861333E-08	5.105438E-07	-3.345625E-05	-1.956919E-05	1.129868E-05	7.125057E-06	1.134346E-05	9.853686E-06
-1.043219E-05	-2.366902E-06	-3.057845E-08	-4.711642E-06	-1.593721E-05	-1.048435E-05	-3.389181E-06	-1.270677E-05	-1.512176E-06	5.82919E-07	-3.452759E-05	-2.16362E-05	1.056236E-05	6.288688E-06	1.189248E-05	1.035518E-05
-1.043219E-05	-2.366902E-06	-3.057845E-08	-4.711642E-06	-1.593721E-05	-1.048435E-05	-3.389181E-06	-1.270677E-05	-1.512176E-06	5.82919E-07	-3.452759E-05	-2.16362E-05	1.056236E-05	6.288688E-06	1.189248E-05	1.035518E-05
-9.95905E-06	-1.058303E-06	-8.14661E-07	-7.667106E-06	-1.617457E-05	-9.377112E-06	-2.81968E-06	-1.218023E-05	-2.25592E-06	1.855183E-06	-3.438623E-05	-2.221607E-05	9.062383E-06	6.429885E-06	1.150696E-05	9.408765E-06
-9.95905E-06	-1.058303E-06	-8.14661E-07	-7.667106E-06	-1.617457E-05	-9.377112E-06	-2.81968E-06	-1.218023E-05	-2.25592E-06	1.855183E-06	-3.438623E-05	-2.221607E-05	9.062383E-06	6.429885E-06	1.150696E-05	9.408765E-06
-9.898183E-06	1.127659E-06	-1.625293E-06	-9.113018E-06	-1.682146E-05	-9.033773E-06	-2.677772E-06	-1.355948E-05	-1.036591E-06	1.405548E-06	-3.237066E-05	-2.080845E-05	8.225576E-06	6.356926E-06	1.070322E-05	8.151827E-06
-9.898183E-06	1.127659E-06	-1.625293E-06	-9.113018E-06	-1.682146E-05	-9.033773E-06	-2.677772E-06	-1.355948E-05	-1.036591E-06	1.405548E-06	-3.237066E-05	-2.080845E-05	8.225576E-06	6.356926E-06	1.070322E-05	8.151827E-06
-1.003492E-05	2.438419E-06	-1.782474E-06	-9.063366E-06	-1.682627E-05	-1.012679E-05	-2.894239E-06	-1.566078E-05	5.112554E-07	6.797566E-07	-3.107244E-05	-1.990898E-05	7.842026E-06	6.035776E-06	9.025218E-06	9.607074E-06
-1.003492E-05	2.438419E-06	-1.782474E-06	-9.063366E-06	-1.682627E-05	-1.012679E-05	-2.894239E-06	-1.566078E-05	5.112554E-07	6.797566E-07	-3.107244E-05	-1.990898E-05	7.842026E-06	6.035776E-06	9.025218E-06	9.607074E-06
-1.02645E-05	2.025281E-06	-5.238486E-07	-9.526029E-06	-1.546439E-05	-1.062262E-05	-2.643882E-06	-1.64643E-05	1.751397E-06	1.130426E-06	-3.116952E-05	-2.069817E-05	9.052515E-06	6.036637E-06	7.395593E-06	1.287977E-05
-1.02645E-05	2.025281E-06	-5.238486E-07	-9.526029E-06	-1.546439E-05	-1.062262E-05	-2.643882E-06	-1.64643E-05	1.751397E-06	1.130426E-06	-3.116952E-05	-2.069817E-05	9.052515E-06	6.036637E-06	7.395593E-06	1.287977E-05
-1.122706E-05	8.75869E-07	7.430685E-07	-1.063546E-05	-1.423609E-05	-9.493747E-06	-2.194932E-06	-1.544572E-05	2.564748E-06	2.155752E-06	-3.204095E-05	-2.047827E-05	1.094573E-05	6.355488E-06	7.635256E-06	1.368491E-05
-1.122706E-05	8.75869E-07	7.430685E-07	-1.063546E-05	-1.423609E-05	-9.493747E-06	-2.194932E-06	-1.544572E-05	2.564748E-06	2.155752E-06	-3.204095E-05	-2.047827E-05	1.094573E-05	6.355488E-06	7.635256E-06	1.368491E-05
-1.251977E-05	1.001044E-08	5.519325E-07	-1.135552E-05	-1.47457E-05	-7.829336E-06	-1.992095E-06	-1.450428E-05	2.855687E-06	2.645971E-06	-3.23807E-05	-1.905988E-05	1.139309E-05	6.273708E-06	9.370914E-06	1.221359E-05
-1.251977E-05	1.001044E-08	5.519325E-07	-1.135552E-05	-1.47457E-05	-7.829336E-06	-1.992095E-06	-1.450428E-05	2.855687E-06	2.645971E-06	-3.23807E-05	-1.905988E-05	1.139309E-05	6.273708E-06	9.370914E-06	1.221359E-05
-1.247296E-05	-1.353219E-06	-5.352469E-07	-1.13932E-05	-1.652034E-05	-7.036145E-06	-1.707498E-06	-1.553066E-05	3.364228E-06	3.363347E-06	-3.195397E-05	-1.723387E-05	9.800468E-06	5.879709E-06	1.0943E-05	1.232266E-05
-1.247296E-05	-1.353219E-06	-5.352469E-07	-1.13932E-05	-1.652034E-05	-7.036145E-06	-1.707498E-06	-1.553066E-05	3.364228E-06	3.363347E-06	-3.195397E-05	-1.723387E-05	9.800468E-06	5.879709E-06	1.0943E-05	1.232266E-05
-1.118358E-05	-4.390884E-06	-1.58995E-06	-1.06467E-05	-1.818707E-05	-7.327912E-06	-1.440787E-06	-1.736355E-05	3.924903E-06	4.984673E-06	-3.072556E-05	-1.699828E-05	8.623691E-06	5.989058E-06	1.145003E-05	1.39213E-05
-1.118358E-05	-4.390884E-06	-1.58995E-06	-1.06467E-05	-1.818707E-05	-7.327912E-06	-1.440787E-06	-1.736355E-05	3.924903E-06	4.984673E-06	-3.072556E-05	-1.699828E-05	8.623691E-06	5.989058E-06	1.145003E-05	1.39213E-05
-1.022935E-05	-8.240165E-06	-2.31117E-06	-1.003974E-05	-1.876495E-05	-7.806737E-06	-1.542094E-06	-1.787009E-05	2.626365E-06	6.218611E-06	-2.972936E-05	-1.756419E-05	8.714624E-06	6.411994E-06	1.169698E-05	1.458398E-05
-1.022935E-05	-8.240165E-06	-2.31117E-06	-1.003974E-05	-1.876495E-05	-7.806737E-06	-1.542094E-06	-1.787009E-05	2.626365E-06	6.218611E-06	-2.972936E-05	-1.756419E-05	8.714624E-06	6.411994E-06	1.169698E-05	1.458398E-05
-1.034512E-05	-1.015984E-05	-2.830105E-06	-1.131073E-05	-1.811383E-05	-7.695668E-06	-1.812262E-06	-1.718031E-05	3.977579E-07	5.275646E-06	-3.0081E-05	-1.662055E-05	9.445595E-06	7.053206E-06	1.30306E-05	1.4193E-05
-1.034512E-05	-1.015984E-05	-2.830105E-06	-1.131073E-05	-1.811383E-05	-7.695668E-06	-1.812262E-06	-1.718031E-05	3.977579E-07	5.275646E-06	-3.0081E-05	-1.662055E-05	9.445595E-06	7.053206E-06	1.30306E-05	1.4193E-05
-1.167777E-05	-8.616732E-06	-3.631337E-06	-1.374078E-05	-1.700248E-05	-6.996924E-06	-2.110771E-06	-1.612283E-05	5.636028E-07	3.963372E-06	-3.132133E-05	-1.37571E-05	9.333762E-06	7.702402E-06	1.419288E-05	1.264384E-05
-1.167777E-05	-8.616732E-06	-3.631337E-06	-1.374078E-05	-1.700248E-05	-6.996924E-06	-2.110771E-06	-1.612283E-05	5.636028E-07	3.963372E-06	-3.132133E-05	-1.37571E-05	9.333762E-06	7.702402E-06	1.419288E-05	1.264384E-05
-1.358009E-05	-4.879186E-06	-4.697271E-06	-1.484137E-05	-1.642622E-05	-6.295201E-06	-2.339348E-06	-1.480264E-05	3.054782E-06	4.2735E-06	-3.237342E-05	-1.320203E-05	7.924044E-06	8.273622E-06	1.300559E-05	1.104906E-05
-1.358009E-05	-4.879186E-06	-4.697271E-06	-1.484137E-05	-1.642622E-05	-6.295201E-06	-2.339348E-06	-1.480264E-05	3.054782E-06	4.2735E-06	-3.237342E-05	-1.320203E-05	7.924044E-06	8.273622E-06	1.300559E-05	1.104906E-05
-1.42926E-05	-1.55105E-06	-5.294957E-06	-1.419925E-05	-1.668708E-05	-6.115783E-06	-1.969866E-06	-1.323453E-05	4.42561E-06	4.592627E-06	-3.221668E-05	-1.610224E-05	7.23798E-06	8.30114E-06	1.022441E-05	1.092112E-05
-1.42926E-05	-1.55105E-06	-5.294957E-06	-1.419925E-05	-1.668708E-05	-6.115783E-06	-1.969866E-06	-1.323453E-05	4.42561E-06	4.592627E-06	-3.221668E-05	-1.610224E-05	7.23798E-06	8.30114E-06	1.022441E-05	1.092112E-05
-1.340693E-05	-9.528281E-07	-5.662477E-06	-1.303569E-05	-1.693411E-05	-6.420844E-06	-8.844081E-07	-1.143974E-05	3.898728E-06	3.985943E-06	-3.130799E-05	-1.874458E-05	8.001859E-06	7.016639E-06	7.767845E-06	1.298229E-05
-1.340693E-05	-9.528281E-07	-5.662477E-06	-1.303569E-05	-1.693411E-05	-6.420844E-06	-8.844081E-07	-1.143974E-05	3.898728E-06	3.985943E-06	-3.130799E-05	-1.874458E-05	8.001859E-06	7.016639E-06	7.767845E-06	1.298229E-05
-1.251011E-05	-3.839593E-06	-6.743648E-06	-1.202631E-05	-1.635864E-05	-6.968966E-06	2.435762E-07	-9.723163E-06	3.892607E-06	2.542553E-06	-3.053161E-05	-1.768632E-05	8.169289E-06	5.103209E-06	6.574607E-06	1.578373E-05
-1.251011E-05	-3.839593E-06	-6.743648E-06	-1.202631E-05	-1.635864E-05	-6.968966E-06	2.435762E-07	-9.723163E-06	3.892607E-06	2.542553E-06	-3.053161E-05	-1.768632E-05	8.169289E-06	5.103209E-06	6.574607E-06	1.578373E-05
-1.245679E-05	-8.5166E-06	-7.827872E-06	-1.124671E-05	-1.576395E-05	-7.874208E-06	8.094929E-07	-8.825435E-06	4.145732E-06	1.76192E-06	-3.136193E-05	-1.585536E-05	7.337821E-06	3.852637E-06	6.1618E-06	1.613556E-05
-1.245679E-05	-8.5166E-06	-7.827872E-06	-1.124671E-05	-1.576395E-05	-7.874208E-06	8.094929E-07	-8.825435E-06	4.145732E-06	1.76192E-06	-3.136193E-05	-1.585536E-05	7.337821E-06	3.852637E-06	6.1618E-06	1.613556E-05
-1.240439E-05	-1.156599E-05	-7.615664E-06	-1.114264E-05	-1.602926E-05	-8.863178E-06	4.29693E-07	-8.789728E-06	2.424621E-06	1.096595E-06	-3.237828E-05	-1.57399E-05	6.427946E-06	4.474242E-06	4.542452E-06	1.338023E-05
-1.240439E-05	-1.156599E-05	-7.615664E-06	-1.114264E-05	-1.602926E-05	-8.863178E-06	4.29693E-07	-8.789728E-06	2.424621E-06	1.096595E-06	-3.237828E-05	-1.57399E-05	6.427946E-06	4.474242E-06	4.542452E-06	1.338023E-05
-1.144738E-05	-1.099369E-05	-6.434296E-06	-1.226091E-05	-1.650796E-05	-9.11452E-06	-9.084351E-07	-8.743362E-06	-3.645515E-07	-1.250204E-06	-3.241369E-05	-1.612475E-05	6.017569E-06	6.138556E-06	3.1219E-06	1.159886E-05
-1.144738E-05	-1.099369E-05	-6.434296E-06	-1.226091E-05	-1.650796E-05	-9.11452E-06	-9.084351E-07	-8.743362E-06	-3.645515E-07	-1.250204E-06	-3.241369E-05	-1.612475E-05	6.017569E-06	6.138556E-06	3.1219E-06	1.159886E-05
-1.038789E-05	-7.909663E-06	-5.267983E-06	-1.309032E-05	-1.695585E-05	-8.701401E-06	-2.240671E-06	-8.087057E-06	-2.058471E-06	-2.883279E-06	-3.381042E-05	-1.641199E-05	6.333958E-06	5.986939E-06	5.25355E-06	1.328855E-05
-1.038789E-05	-7.909663E-06	-5.267983E-06	-1.309032E-05	-1.695585E-05	-8.701401E-06	-2.240671E-06	-8.087057E-06	-2.058471E-06	-2.883279E-06	-3.381042E-05	-1.641199E-05	6.333958E-06	5.986939E-06	5.25355E-06	1.328855E-05
-1.081242E-05	-3.72049E-06	-4.51362E-06	-1.180856E-05	-1.786143E-05	-8.270937E-06	-2.46521E-06	-6.726375E-06	-1.871423E-06	-2.827048E-06	-3.402323E-05	-1.728024E-05	7.547859E-06	5.224507E-06	6.889675E-06	1.44096E-05
-1.081242E-05	-3.72049E-06	-4.51362E-06	-1.180856E-05	-1.786143E-05	-8.270937E-06	-2.46521E-06	-6.726375E-06	-1.871423E-06	-2.827048E-06	-3.402323E-05	-1.728024E-05	7.547859E-06	5.224507E-06	6.889675E-06	1.44096E-05
-1.258885E-05	-4.017264E-07	-4.539691E-06	-1.041701E-05	-1.830422E-05	-7.898894E-06	-1.384581E-06	-5.790064E-06	1.928016E-07	-2.876468E-06	-3.191211E-05	-1.919069E-05	8.726553E-06	4.679582E-06	6.559568E-06	1.385842E-05
-1.258885E-05	-4.017264E-07	-4.539691E-06	-1.041701E-05	-1.830422E-05	-7.898894E-06	-1.384581E-06	-5.790064E-06	1.928016E-07	-2.876468E-06	-3.191211E-05	-1.919069E-05	8.726553E-06	4.679582E-06	6.559568E-06	1.385842E-05
-1.396029E-05	-3.888134E-07	-5.462181E-06	-1.124833E-05	-1.75467E-05	-7.417133E-06	2.010168E-08	-7.169087E-06	1.120083E-06	-1.8127E-06	-3.081675E-05	-1.902621E-05	8.973473E-06	2.923566E-06	7.0698E-06	1.350347E-05
-1.396029E-05	-3.888134E-07	-5.462181E-06	-1.124833E-05	-1.75467E-05	-7.417133E-06	2.010168E-08	-7.169087E-06	1.120083E-06	-1.8127E-06	-3.081675E-05	-1.902621E-05	8.973473E-06	2.923566E-06	7.0698E-06	1.350347E-05
-1.355664E-05	-1.761529E-06	-6.029812E-06	-1.252288E-05	-1.703942E-05	-6.831048E-06	1.356079E-07	-1.064613E-05	-8.112875E-07	-4.244429E-07	-3.081945E-05	-1.845734E-05	7.713197E-06	2.396531E-06	7.513322E-06	1.362237E-05
-1.355664E-05	-1.761529E-06	-6.029812E-06	-1.252288E-05	-1.703942E-05	-6.831048E-06	1.356079E-07	-1.064613E-05	-8.112875E-07	-4.244429E-07	-3.081945E-05	-1.845734E-05	7.713197E-06	2.396531E-06	7.513322E-06	1.362237E-05
-1.175002E-05	-1.491904E-06	-5.054143E-06	-1.214966E-05	-1.771662E-05	-6.617725E-06	-1.189195E-06	-1.426393E-05	-3.344159E-06	7.892536E-07	-3.1172E-05	-1.849814E-05	8.161659E-06	3.904961E-06	8.240166E-06	1.502355E-05
-1.175002E-05	-1.491904E-06	-5.054143E-06	-1.214966E-05	-1.771662E-05	-6.617725E-06	-1.189195E-06	-1.426393E-05	-3.344159E-06	7.892536E-07	-3.1172E-05	-1.849814E-05	8.161659E-06	3.904961E-06	8.240166E-06	1.502355E-05
-1.013698E-05	-1.388391E-07	-3.672793E-06	-1.137224E-05	-1.861674E-05	-7.166629E-06	-2.427314E-06	-1.641148E-05	-4.094209E-06	1.254353E-06	-3.162536E-05	-1.97916E-05	8.112292E-06	4.082049E-06	8.869059E-06	1.569553E-05
-1.013698E-05	-1.388391E-07	-3.672793E-06	-1.137224E-05	-1.861674E-05	-7.166629E-06	-2.427314E-06	-1.641148E-05	-4.094209E-06	1.254353E-06	-3.162536E-05	-1.97916E-05	8.112292E-06	4.082049E-06	8.869059E-06	1.569553E-05
-9.848573E-06	1.170969E-06	-3.677991E-06	-1.227175E-05	-1.890187E-05	-8.008083E-06	-2.481397E-06	-1.619784E-05	-4.204833E-06	1.960243E-06	-3.209224E-05	-2.102456E-05	6.947405E-06	2.931038E-06	9.059534E-06	1.610703E-05
-9.848573E-06	1.170969E-06	-3.677991E-06	-1.227175E-05	-1.890187E-05	-8.008083E-06	-2.481397E-06	-1.619784E-05	-4.204833E-06	1.960243E-06	-3.209224E-05	-2.102456E-05	6.947405E-06	2.931038E-06	9.059534E-06	1.610703E-05
-1.061997E-05	1.488104E-06	-4.349683E-06	-1.426561E-05	-1.865638E-05	-8.655352E-06	-1.453963E-06	-1.438454E-05	-4.294011E-06	3.046342E-06	-3.045911E-05	-2.150124E-05	6.966906E-06	2.918189E-06	9.692904E-06	1.578255E-05
-1.061997E-05	1.488104E-06	-4.349683E-06	-1.426561E-05	-1.865638E-05	-8.655352E-06	-1.453963E-06	-1.438454E-05	-4.294011E-06	3.046342E-06	-3.045911E-05	-2.150124E-05	6.966906E-06	2.918189E-06	9.692904E-06	1.578255E-05
-1.136403E-05	3.304997E-07	-3.8274E-06	-1.526638E-05	-1.824926E-05	-9.026737E-06	-4.797838E-07	-1.324707E-05	-4.752897E-06	3.499816E-06	-2.855739E-05	-2.063555E-05	8.369588E-06	3.602469E-06	9.312728E-06	1.502751E-05
-1.136403E-05	3.304997E-07	-3.8274E-06	-1.526638E-05	-1.824926E-05	-9.026737E-06	-4.797838E-07	-1.324707E-05	-4.752897E-06	3.499816E-06	-2.855739E-05	-2.063555E-05	8.369588E-06	3.602469E-06	9.312728E-06	1.502751E-05
-1.137074E-05	-4.752572E-07	-2.167861E-06	-1.448832E-05	-1.793281E-05	-8.921233E-06	-8.826399E-07	-1.403964E-05	-5.508982E-06	3.939538E-06	-2.700653E-05	-1.871427E-05	9.940271E-06	3.497855E-06	9.053806E-06	1.458586E-05
-1.137074E-05	-4.752572E-07	-2.167861E-06	-1.448832E-05	-1.793281E-05	-8.921233E-06	-8.826399E-07	-1.403964E-05	-5.508982E-06	3.939538E-06	-2.700653E-05	-1.871427E-05	9.940271E-06	3.497855E-06	9.053806E-06	1.458586E-05
-1.073577E-05	4.531049E-07	-9.248627E-07	-1.222697E-05	-1.78359E-05	-8.161482E-06	-2.216466E-06	-1.545481E-05	-5.021902E-06	3.799252E-06	-2.661464E-05	-1.817264E-05	9.76521E-06	2.832075E-06	1.062252E-05	1.443683E-05
-1.073577E-05	4.531049E-07	-9.248627E-07	-1.222697E-05	-1.78359E-05	-8.161482E-06	-2.216466E-06	-1.545481E-05	-5.021902E-06	3.799252E-06	-2.661464E-05	-1.817264E-05	9.76521E-06	2.832075E-06	1.062252E-05	1.443683E-05
-1.014764E-05	1.973006E-06	-1.234894E-06	-9.254676E-06	-1.783053E-05	-7.060465E-06	-2.822242E-06	-1.557494E-05	-3.620748E-06	3.507467E-06	-2.76492E-05	-1.937692E-05	8.94473E-06	2.444297E-06	1.288426E-05	1.331226E-05
-1.014764E-05	1.973006E-06	-1.234894E-06	-9.254676E-06	-1.783053E-05	-7.060465E-06	-2.822242E-06	-1.557494E-05	-3.620748E-06	3.507467E-06	-2.76492E-05	-1.937692E-05	8.94473E-06	2.444297E-06	1.288426E-05	1.331226E-05
-1.033306E-05	2.760796E-06	-2.680659E-06	-6.785925E-06	-1.754874E-05	-6.339806E-06	-2.486402E-06	-1.441859E-05	-2.951877E-06	2.167063E-06	-2.854788E-05	-2.202744E-05	8.223673E-06	1.970123E-06	1.423187E-05	1.163784E-05
-1.033306E-05	2.760796E-06	-2.680659E-06	-6.785925E-06	-1.754874E-05	-6.339806E-06	-2.486402E-06	-1.441859E-05	-2.951877E-06	2.167063E-06	-2.854788E-05	-2.202744E-05	8.223673E-06	1.970123E-06	1.423187E-05	1.163784E-05
-1.109824E-05	2.769547E-06	-3.692039E-06	-5.726824E-06	-1.706996E-05	-6.28854E-06	-2.069868E-06	-1.27901E-05	-2.992738E-06	1.070736E-06	-2.783096E-05	-2.333492E-05	7.380893E-06	1.938294E-06	1.500929E-05	1.128919E-05
-1.109824E-05	2.769547E-06	-3.692039E-06	-5.726824E-06	-1.706996E-05	-6.28854E-06	-2.069868E-06	-1.27901E-05	-2.992738E-06	1.070736E-06	-2.783096E-05	-2.333492E-05	7.380893E-06	1.938294E-06	1.500929E-05	1.128919E-05
-1.16342E-05	2.345494E-06	-3.447349E-06	-6.299314E-06	-1.692345E-05	-6.478341E-06	-1.766191E-06	-1.094992E-05	-2.795719E-06	1.077152E-06	-2.676462E-05	-2.203455E-05	6.394476E-06	2.935564E-06	1.585844E-05	1.195409E-05
-1.16342E-05	2.345494E-06	-3.447349E-06	-6.299314E-06	-1.692345E-05	-6.478341E-06	-1.766191E-06	-1.094992E-05	-2.795719E-06	1.077152E-06	-2.676462E-05	-2.203455E-05	6.394476E-06	2.935564E-06	1.585844E-05	1.195409E-05
-1.194259E-05	1.272702E-06	-2.972831E-06	-8.210209E-06	-1.712954E-05	-6.557485E-06	-1.253134E-06	-9.673876E-06	-1.987478E-06	1.852475E-06	-2.638243E-05	-1.997544E-05	6.71315E-06	3.864215E-06	1.615115E-05	1.216249E-05
-1.194259E-05	1.272702E-06	-2.972831E-06	-8.210209E-06	-1.712954E-05	-6.557485E-06	-1.253134E-06	-9.673876E-06	-1.987478E-06	1.852475E-06	-2.638243E-05	-1.997544E-05	6.71315E-06	3.864215E-06	1.615115E-05	1.216249E-05
-1.222893E-05	-3.174736E-07	-3.529735E-06	-1.123519E-05	-1.72634E-05	-6.495709E-06	-8.238068E-07	-9.494076E-06	-8.586575E-07	2.230093E-06	-2.663648E-05	-1.985627E-05	7.576764E-06	4.712155E-06	1.618353E-05	1.18944E-05
-1.222893E-05	-3.174736E-07	-3.529735E-06	-1.123519E-05	-1.72634E-05	-6.495709E-06	-8.238068E-07	-9.494076E-06	-8.586575E-07	2.230093E-06	-2.663648E-05	-1.985627E-05	7.576764E-06	4.712155E-06	1.618353E-05	1.18944E-05
-1.192022E-05	-1.280696E-06	-4.825942E-06	-1.52549E-05	-1.705857E-05	-6.466369E-06	-1.482154E-06	-9.498401E-06	9.70225E-07	1.20319E-06	-2.744738E-05	-2.093342E-05	7.661573E-06	6.578333E-06	1.656319E-05	1.341562E-05
-1.192022E-05	-1.280696E-06	-4.825942E-06	-1.52549E-05	-1.705857E-05	-6.466369E-06	-1.482154E-06	-9.498401E-06	9.70225E-07	1.20319E-06	-2.744738E-05	-2.093342E-05	7.661573E-06	6.578333E-06	1.656319E-05	1.341562E-05
-1.099154E-05	-1.128586E-06	-5.782652E-06	-1.863536E-05	-1.627566E-05	-7.019262E-06	-3.228977E-06	-8.790187E-06	2.798852E-06	-4.435103E-07	-2.720749E-05	-2.100857E-05	7.053762E-06	8.293047E-06	1.632423E-05	1.580605E-05
-1.099154E-05	-1.128586E-06	-5.782652E-06	-1.863536E-05	-1.627566E-05	-7.019262E-06	-3.228977E-06	-8.790187E-06	2.798852E-06	-4.435103E-07	-2.720749E-05	-2.100857E-05	7.053762E-06	8.293047E-06	1.632423E-05	1.580605E-05
-1.036078E-05	-5.228677E-07	-5.823366E-06	-1.890529E-05	-1.521033E-05	-8.00807E-06	-4.628804E-06	-7.973173E-06	3.366983E-06	-1.260187E-06	-2.588219E-05	-2.015518E-05	7.658748E-06	7.830856E-06	1.513472E-05	1.669561E-05
-1.036078E-05	-5.228677E-07	-5.823366E-06	-1.890529E-05	-1.521033E-05	-8.00807E-06	-4.628804E-06	-7.973173E-06	3.366983E-06	-1.260187E-06	-2.588219E-05	-2.015518E-05	7.658748E-06	7.830856E-06	1.513472E-05	1.669561E-05
-1.056645E-05	-1.071049E-07	-5.205985E-06	-1.6014E-05	-1.502669E-05	-7.862756E-06	-4.520851E-06	-8.418542E-06	2.504606E-06	2.317783E-07	-2.544435E-05	-1.994741E-05	8.336852E-06	6.90776E-06	1.461868E-05	1.522596E-05
-1.056645E-05	-1.071049E-07	-5.205985E-06	-1.6014E-05	-1.502669E-05	-7.862756E-06	-4.520851E-06	-8.418542E-06	2.504606E-06	2.317783E-07	-2.544435E-05	-1.994741E-05	8.336852E-06	6.90776E-06	1.461868E-05	1.522596E-05
-1.133646E-05	-3.112701E-07	-4.706293E-06	-1.261188E-05	-1.601662E-05	-5.886175E-06	-3.088038E-06	-9.732333E-06	1.5974E-06	3.749752E-06	-2.661598E-05	-2.098222E-05	8.800175E-06	6.680898E-06	1.539414E-05	1.319784E-05
-1.133646E-05	-3.112701E-07	-4.706293E-06	-1.261188E-05	-1.601662E-05	-5.886175E-06	-3.088038E-06	-9.732333E-06	1.5974E-06	3.749752E-06	-2.661598E-05	-2.098222E-05	8.800175E-06	6.680898E-06	1.539414E-05	1.319784E-05
-1.196264E-05	-1.311655E-06	-4.837968E-06	-1.083749E-05	-1.705665E-05	-3.614413E-06	-1.546214E-06	-1.018391E-05	1.360464E-06	4.861896E-06	-2.778384E-05	-2.198204E-05	8.457377E-06	6.909251E-06	1.648348E-05	1.208415E-05
-1.196264E-05	-1.311655E-06	-4.837968E-06	-1.083749E-05	-1.705665E-05	-3.614413E-06	-1.546214E-06	-1.018391E-05	1.360464E-06	4.861896E-06	-2.778384E-05	-2.198204E-05	8.457377E-06	6.909251E-06	1.648348E-05	1.208415E-05
-1.187001E-05	-2.693783E-06	-5.360451E-06	-1.005552E-05	-1.740854E-05	-2.837559E-06	-1.071635E-06	-1.012819E-05	-7.602059E-08	2.640557E-06	-2.742739E-05	-2.146938E-05	7.111057E-06	7.738652E-06	1.583447E-05	1.337872E-05
-1.187001E-05	-2.693783E-06	-5.360451E-06	-1.005552E-05	-1.740854E-05	-2.837559E-06	-1.071635E-06	-1.012819E-05	-7.602059E-08	2.640557E-06	-2.742739E-05	-2.146938E-05	7.111057E-06	7.738652E-06	1.583447E-05	1.337872E-05
-1.142468E-05	-4.052833E-06	-5.418089E-06	-9.437743E-06	-1.694948E-05	-3.730689E-06	-1.729951E-06	-1.07593E-05	-5.071553E-07	2.241723E-06	-2.592638E-05	-1.98694E-05	5.404334E-06	6.552281E-06	1.373892E-05	1.5794E-05
-1.142468E-05	-4.052833E-06	-5.418089E-06	-9.437743E-06	-1.694948E-05	-3.730689E-06	-1.729951E-06	-1.07593E-05	-5.071553E-07	2.241723E-06	-2.592638E-05	-1.98694E-05	5.404334E-06	6.552281E-06	1.373892E-05	1.5794E-05
-1.154342E-05	-5.35847E-06	-4.489865E-06	-9.838092E-06	-1.574637E-05	-5.022796E-06	-2.567105E-06	-1.15256E-05	4.351261E-07	2.283921E-06	-2.702985E-05	-1.960266E-05	5.656595E-06	4.043894E-06	1.300601E-05	1.669985E-05
-1.154342E-05	-5.35847E-06	-4.489865E-06	-9.838092E-06	-1.574637E-05	-5.022796E-06	-2.567105E-06	-1.15256E-05	4.351261E-07	2.283921E-06	-2.702985E-05	-1.960266E-05	5.656595E-06	4.043894E-06	1.300601E-05	1.669985E-05
-1.184413E-05	-5.980969E-06	-3.29056E-06	-1.110724E-05	-1.466849E-05	-5.765607E-06	-2.774721E-06	-1.178229E-05	-1.257258E-08	1.236615E-06	-2.718581E-05	-2.097746E-05	7.494124E-06	3.706341E-06	1.44566E-05	1.539842E-05
-1.184413E-05	-5.980969E-06	-3.29056E-06	-1.110724E-05	-1.466849E-05	-5.765607E-06	-2.774721E-06	-1.178229E-05	-1.257258E-08	1.236615E-06	-2.718581E-05	-2.097746E-05	7.494124E-06	3.706341E-06	1.44566E-05	1.539842E-05
-1.149692E-05	-5.020908E-06	-2.794341E-06	-1.189944E-05	-1.430606E-05	-5.836519E-06	-2.403434E-06	-1.168805E-05	-1.404732E-06	4.286518E-07	-2.71633E-05	-2.04391E-05	7.467508E-06	5.094333E-06	1.528125E-05	1.489171E-05
-1.149692E-05	-5.020908E-06	-2.794341E-06	-1.189944E-05	-1.430606E-05	-5.836519E-06	-2.403434E-06	-1.168805E-05	-1.404732E-06	4.286518E-07	-2.71633E-05	-2.04391E-05	7.467508E-06	5.094333E-06	1.528125E-05	1.489171E-05
-1.152349E-05	-3.246636E-06	-3.122328E-06	-1.135576E-05	-1.399092E-05	-4.975482E-06	-2.197354E-06	-1.152245E-05	-1.287192E-06	1.752142E-06	-2.791049E-05	-1.769145E-05	7.45328E-06	7.377357E-06	1.497759E-05	1.406021E-05
-1.152349E-05	-3.246636E-06	-3.122328E-06	-1.135576E-05	-1.399092E-05	-4.975482E-06	-2.197354E-06	-1.152245E-05	-1.287192E-06	1.752142E-06	-2.791049E-05	-1.769145E-05	7.45328E-06	7.377357E-06	1.497759E-05	1.406021E-05
-1.24959E-05	-2.685534E-06	-3.553525E-06	-9.830575E-06	-1.354462E-05	-3.780561E-06	-2.40051E-06	-1.207637E-05	-3.372346E-07	3.684129E-06	-2.893713E-05	-1.54746E-05	7.88137E-06	8.631548E-06	1.416455E-05	1.117426E-05
-1.24959E-05	-2.685534E-06	-3.553525E-06	-9.830575E-06	-1.354462E-05	-3.780561E-06	-2.40051E-06	-1.207637E-05	-3.372346E-07	3.684129E-06	-2.893713E-05	-1.54746E-05	7.88137E-06	8.631548E-06	1.416455E-05	1.117426E-05
-1.303432E-05	-4.088106E-06	-3.248942E-06	-8.868989E-06	-1.351189E-05	-3.837475E-06	-2.218425E-06	-1.3453E-05	2.30549E-07	3.34058E-06	-3.01849E-05	-1.578758E-05	8.83715E-06	8.432568E-06	1.335574E-05	9.43799E-06
-1.303432E-05	-4.088106E-06	-3.248942E-06	-8.868989E-06	-1.351189E-05	-3.837475E-06	-2.218425E-06	-1.3453E-05	2.30549E-07	3.34058E-06	-3.01849E-05	-1.578758E-05	8.83715E-06	8.432568E-06	1.335574E-05	9.43799E-06
-1.284129E-05	-6.321161E-06	-2.803874E-06	-8.675551E-06	-1.366463E-05	-5.181405E-06	-1.509938E-06	-1.366612E-05	1.373582E-09	2.453062E-06	-2.859795E-05	-1.622439E-05	9.835453E-06	8.660673E-06	1.234097E-05	1.007234E-05
-1.284129E-05	-6.321161E-06	-2.803874E-06	-8.675551E-06	-1.366463E-05	-5.181405E-06	-1.509938E-06	-1.366612E-05	1.373582E-09	2.453062E-06	-2.859795E-05	-1.622439E-05	9.835453E-06	8.660673E-06	1.234097E-05	1.007234E-05
-1.256997E-05	-7.82106E-06	-2.889613E-06	-8.368687E-06	-1.3681E-05	-6.403561E-06	-1.451536E-06	-1.196739E-05	-6.666515E-07	1.918003E-06	-2.772203E-05	-1.648256E-05	7.830134E-06	8.48419E-06	1.180606E-05	1.147991E-05
-1.256997E-05	-7.82106E-06	-2.889613E-06	-8.368687E-06	-1.3681E-05	-6.403561E-06	-1.451536E-06	-1.196739E-05	-6.666515E-07	1.918003E-06	-2.772203E-05	-1.648256E-05	7.830134E-06	8.48419E-06	1.180606E-05	1.147991E-05
-1.196691E-05	-7.836299E-06	-2.67972E-06	-8.517328E-06	-1.400227E-05	-6.789232E-06	-2.80846E-06	-1.067323E-05	-1.474851E-06	1.429885E-06	-2.817577E-05	-1.772893E-05	5.145774E-06	7.764354E-06	1.200897E-05	1.280546E-05
-1.196691E-05	-7.836299E-06	-2.67972E-06	-8.517328E-06	-1.400227E-05	-6.789232E-06	-2.80846E-06	-1.067323E-05	-1.474851E-06	1.429885E-06	-2.817577E-05	-1.772893E-05	5.145774E-06	7.764354E-06	1.200897E-05	1.280546E-05
-1.118482E-05	-6.990892E-06	-2.342191E-06	-9.695963E-06	-1.505579E-05	-6.517584E-06	-4.649764E-06	-1.121858E-05	-2.913241E-06	1.539917E-06	-2.916036E-05	-1.752797E-05	3.9465E-06	6.705722E-06	1.184316E-05	1.390726E-05
-1.118482E-05	-6.990892E-06	-2.342191E-06	-9.695963E-06	-1.505579E-05	-6.517584E-06	-4.649764E-06	-1.121858E-05	-2.913241E-06	1.539917E-06	-2.916036E-05	-1.752797E-05	3.9465E-06	6.705722E-06	1.184316E-05	1.390726E-05
-1.106823E-05	-6.078524E-06	-2.673769E-06	-1.078059E-05	-1.63133E-05	-6.203214E-06	-5.785741E-06	-1.24125E-05	-3.16674E-06	2.286794E-06	-2.99742E-05	-1.533743E-05	4.342478E-06	6.787905E-06	1.235868E-05	1.370138E-05
-1.106823E-05	-6.078524E-06	-2.673769E-06	-1.078059E-05	-1.63133E-05	-6.203214E-06	-5.785741E-06	-1.24125E-05	-3.16674E-06	2.286794E-06	-2.99742E-05	-1.533743E-05	4.342478E-06	6.787905E-06	1.235868E-05	1.370138E-05
-1.176742E-05	-4.716351E-06	-2.821328E-06	-1.009446E-05	-1.655033E-05	-6.487337E-06	-6.512064E-06	-1.263417E-05	-2.087982E-06	2.858286E-06	-2.98118E-05	-1.333475E-05	6.010805E-06	6.229412E-06	1.256637E-05	1.222609E-05
-1.176742E-05	-4.716351E-06	-2.821328E-06	-1.009446E-05	-1.655033E-05	-6.487337E-06	-6.512064E-06	-1.263417E-05	-2.087982E-06	2.858286E-06	-2.98118E-05	-1.333475E-05	6.010805E-06	6.229412E-06	1.256637E-05	1.222609E-05
-1.26831E-05	-3.034979E-06	-2.355386E-06	-7.308431E-06	-1.562749E-05	-7.178134E-06	-7.392459E-06	-1.189408E-05	-1.598056E-06	3.047603E-06	-2.906596E-05	-1.27514E-05	7.304116E-06	5.42906E-06	1.260295E-05	1.063598E-05
-1.26831E-05	-3.034979E-06	-2.355386E-06	-7.308431E-06	-1.562749E-05	-7.178134E-06	-7.392459E-06	-1.189408E-05	-1.598056E-06	3.047603E-06	-2.906596E-05	-1.27514E-05	7.304116E-06	5.42906E-06	1.260295E-05	1.063598E-05
-1.327437E-05	-1.80902E-06	-2.203229E-06	-3.85256E-06	-1.477988E-05	-7.611793E-06	-7.884355E-06	-1.16358E-05	-3.035915E-06	2.590784E-06	-2.847593E-05	-1.420282E-05	7.657509E-06	4.906958E-06	1.290039E-05	9.893936E-06
-1.327437E-05	-1.80902E-06	-2.203229E-06	-3.85256E-06	-1.477988E-05	-7.611793E-06	-7.884355E-06	-1.16358E-05	-3.035915E-06	2.590784E-06	-2.847593E-05	-1.420282E-05	7.657509E-06	4.906958E-06	1.290039E-05	9.893936E-06
-1.357408E-05	-3.83458E-07	-2.451337E-06	-1.437091E-06	-1.486855E-05	-7.793242E-06	-7.197611E-06	-1.248823E-05	-5.433501E-06	1.841043E-06	-3.03823E-05	-1.651989E-05	7.537368E-06	4.797829E-06	1.356185E-05	9.610753E-06
-1.357408E-05	-3.83458E-07	-2.451337E-06	-1.437091E-06	-1.486855E-05	-7.793242E-06	-7.197611E-06	-1.248823E-05	-5.433501E-06	1.841043E-06	-3.03823E-05	-1.651989E-05	7.537368E-06	4.797829E-06	1.356185E-05	9.610753E-06
-1.380521E-05	1.408247E-06	-2.064161E-06	-6.949636E-07	-1.596195E-05	-7.83074E-06	-5.969161E-06	-1.327071E-05	-6.944598E-06	1.453536E-06	-3.261501E-05	-1.759155E-05	6.600113E-06	5.926467E-06	1.392908E-05	9.510262E-06
-1.380521E-05	1.408247E-06	-2.064161E-06	-6.949636E-07	-1.596195E-05	-7.83074E-06	-5.969161E-06	-1.327071E-05	-6.944598E-06	1.453536E-06	-3.261501E-05	-1.759155E-05	6.600113E-06	5.926467E-06	1.392908E-05	9.510262E-06
-1.384217E-05	1.852533E-06	-7.365785E-07	-1.010984E-06	-1.757562E-05	-7.400652E-06	-5.751147E-06	-1.2871E-05	-7.038524E-06	1.82797E-06	-3.323058E-05	-1.791394E-05	5.099967E-06	6.883821E-06	1.341853E-05	1.039801E-05
-1.384217E-05	1.852533E-06	-7.365785E-07	-1.010984E-06	-1.757562E-05	-7.400652E-06	-5.751147E-06	-1.2871E-05	-7.038524E-06	1.82797E-06	-3.323058E-05	-1.791394E-05	5.099967E-06	6.883821E-06	1.341853E-05	1.039801E-05
-1.344379E-05	3.390884E-07	-2.536158E-08	-1.286134E-06	-1.850331E-05	-6.675531E-06	-6.486974E-06	-1.238998E-05	-5.198575E-06	1.633827E-06	-3.359763E-05	-1.84767E-05	5.440197E-06	7.28125E-06	1.263004E-05	1.09352E-05
-1.344379E-05	3.390884E-07	-2.536158E-08	-1.286134E-06	-1.850331E-05	-6.675531E-06	-6.486974E-06	-1.238998E-05	-5.198575E-06	1.633827E-06	-3.359763E-05	-1.84767E-05	5.440197E-06	7.28125E-06	1.263004E-05	1.09352E-05
-1.253514E-05	-1.616355E-06	-9.801927E-07	-1.106762E-06	-1.79693E-05	-6.323891E-06	-6.788527E-06	-1.334156E-05	-2.834128E-06	9.095853E-07	-3.397372E-05	-1.8568E-05	6.92189E-06	7.799717E-06	1.30805E-05	9.971104E-06
-1.253514E-05	-1.616355E-06	-9.801927E-07	-1.106762E-06	-1.79693E-05	-6.323891E-06	-6.788527E-06	-1.334156E-05	-2.834128E-06	9.095853E-07	-3.397372E-05	-1.8568E-05	6.92189E-06	7.799717E-06	1.30805E-05	9.971104E-06
-1.13129E-05	-2.537907E-06	-2.090783E-06	-1.17384E-06	-1.655153E-05	-6.551322E-06	-6.071344E-06	-1.508378E-05	-2.136525E-06	1.000322E-06	-3.317567E-05	-1.732376E-05	7.966083E-06	8.67761E-06	1.456354E-05	9.409487E-06
-1.13129E-05	-2.537907E-06	-2.090783E-06	-1.17384E-06	-1.655153E-05	-6.551322E-06	-6.071344E-06	-1.508378E-05	-2.136525E-06	1.000322E-06	-3.317567E-05	-1.732376E-05	7.966083E-06	8.67761E-06	1.456354E-05	9.409487E-06
-1.046278E-05	-2.616785E-06	-1.917774E-06	-2.156758E-06	-1.512727E-05	-6.811477E-06	-4.921974E-06	-1.620794E-05	-3.005116E-06	2.86624E-06	-3.190742E-05	-1.687131E-05	8.136793E-06	8.343977E-06	1.519381E-05	1.146922E-05
-1.046278E-05	-2.616785E-06	-1.917774E-06	-2.156758E-06	-1.512727E-05	-6.811477E-06	-4.921974E-06	-1.620794E-05	-3.005116E-06	2.86624E-06	-3.190742E-05	-1.687131E-05	8.136793E-06	8.343977E-06	1.519381E-05	1.146922E-05
-1.044857E-05	-3.140192E-06	-9.147564E-07	-4.07784E-06	-1.412156E-05	-6.723659E-06	-4.444192E-06	-1.603213E-05	-3.431505E-06	4.392964E-06	-3.247661E-05	-1.797305E-05	7.689951E-06	6.904168E-06	1.439386E-05	1.444937E-05
-1.044857E-05	-3.140192E-06	-9.147564E-07	-4.07784E-06	-1.412156E-05	-6.723659E-06	-4.444192E-06	-1.603213E-05	-3.431505E-06	4.392964E-06	-3.247661E-05	-1.797305E-05	7.689951E-06	6.904168E-06	1.439386E-05	1.444937E-05
-1.067921E-05	-4.708984E-06	-1.122121E-07	-6.990686E-06	-1.366401E-05	-6.79973E-06	-5.191253E-06	-1.470519E-05	-2.222275E-06	3.772913E-06	-3.450827E-05	-1.866687E-05	6.745595E-06	6.367392E-06	1.312336E-05	1.447671E-05
-1.067921E-05	-4.708984E-06	-1.122121E-07	-6.990686E-06	-1.366401E-05	-6.79973E-06	-5.191253E-06	-1.470519E-05	-2.222275E-06	3.772913E-06	-3.450827E-05	-1.866687E-05	6.745595E-06	6.367392E-06	1.312336E-05	1.447671E-05
-1.068351E-05	-6.464439E-06	-1.051273E-08	-1.048782E-05	-1.350823E-05	-7.134927E-06	-6.181913E-06	-1.38591E-05	-4.431647E-07	3.533228E-06	-3.509385E-05	-1.831285E-05	6.126158E-06	7.78941E-06	1.244845E-05	1.345372E-05
-1.068351E-05	-6.464439E-06	-1.051273E-08	-1.048782E-05	-1.350823E-05	-7.134927E-06	-6.181913E-06	-1.38591E-05	-4.431647E-07	3.533228E-06	-3.509385E-05	-1.831285E-05	6.126158E-06	7.78941E-06	1.244845E-05	1.345372E-05
-1.082151E-05	-7.300144E-06	-5.979365E-07	-1.339993E-05	-1.358417E-05	-6.938479E-06	-5.882087E-06	-1.46158E-05	4.941109E-07	5.243736E-06	-3.338043E-05	-1.77448E-05	7.311837E-06	9.075772E-06	1.217845E-05	1.433442E-05
-1.082151E-05	-7.300144E-06	-5.979365E-07	-1.339993E-05	-1.358417E-05	-6.938479E-06	-5.882087E-06	-1.46158E-05	4.941109E-07	5.243736E-06	-3.338043E-05	-1.77448E-05	7.311837E-06	9.075772E-06	1.217845E-05	1.433442E-05
-1.116705E-05	-7.665912E-06	-1.874963E-06	-1.511277E-05	-1.449602E-05	-6.117336E-06	-4.319087E-06	-1.479582E-05	4.464452E-07	7.189473E-06	-3.183682E-05	-1.663885E-05	9.028817E-06	9.084033E-06	1.191721E-05	1.469213E-05
-1.116705E-05	-7.665912E-06	-1.874963E-06	-1.511277E-05	-1.449602E-05	-6.117336E-06	-4.319087E-06	-1.479582E-05	4.464452E-07	7.189473E-06	-3.183682E-05	-1.663885E-05	9.028817E-06	9.084033E-06	1.191721E-05	1.469213E-05
-1.167722E-05	-9.246159E-06	-3.466292E-06	-1.638762E-05	-1.595398E-05	-5.154057E-06	-3.079734E-06	-1.279054E-05	-9.99349E-09	7.24204E-06	-3.270129E-05	-1.644545E-05	7.938508E-06	7.89253E-06	1.135333E-05	1.450363E-05
-1.167722E-05	-9.246159E-06	-3.466292E-06	-1.638762E-05	-1.595398E-05	-5.154057E-06	-3.079734E-06	-1.279054E-05	-9.99349E-09	7.24204E-06	-3.270129E-05	-1.644545E-05	7.938508E-06	7.89253E-06	1.135333E-05	1.450363E-05
-1.260374E-05	-1.250434E-05	-4.482875E-06	-1.815562E-05	-1.650623E-05	-4.197254E-06	-3.267496E-06	-1.074754E-05	9.44397E-07	7.195997E-06	-3.431917E-05	-1.661002E-05	5.351554E-06	7.570997E-06	1.240216E-05	1.437659E-05
-1.260374E-05	-1.250434E-05	-4.482875E-06	-1.815562E-05	-1.650623E-05	-4.197254E-06	-3.267496E-06	-1.074754E-05	9.44397E-07	7.195997E-06	-3.431917E-05	-1.661002E-05	5.351554E-06	7.570997E-06	1.240216E-05	1.437659E-05
-1.320296E-05	-1.614956E-05	-4.950791E-06	-2.03947E-05	-1.594427E-05	-4.114056E-06	-4.069336E-06	-1.049442E-05	3.09349E-06	7.23649E-06	-3.505609E-05	-1.633406E-05	4.502547E-06	6.5363E-06	1.446941E-05	1.331252E-05
-1.320296E-05	-1.614956E-05	-4.950791E-06	-2.03947E-05	-1.594427E-05	-4.114056E-06	-4.069336E-06	-1.049442E-05	3.09349E-06	7.23649E-06	-3.505609E-05	-1.633406E-05	4.502547E-06	6.5363E-06	1.446941E-05	1.331252E-05
-1.272025E-05	-1.94683E-05	-5.453848E-06	-2.26344E-05	-1.520349E-05	-5.674643E-06	-3.703336E-06	-1.159162E-05	3.824666E-06	5.541664E-06	-3.399919E-05	-1.637721E-05	5.109483E-06	4.720239E-06	1.623809E-05	1.127973E-05
-1.272025E-05	-1.94683E-05	-5.453848E-06	-2.26344E-05	-1.520349E-05	-5.674643E-06	-3.703336E-06	-1.159162E-05	3.824666E-06	5.541664E-06	-3.399919E-05	-1.637721E-05	5.109483E-06	4.720239E-06	1.623809E-05	1.127973E-05
-1.263104E-05	-2.114806E-05	-5.22054E-06	-2.29695E-05	-1.490728E-05	-6.766219E-06	-1.634535E-06	-1.261971E-05	4.131317E-06	4.460015E-06	-3.356201E-05	-1.689994E-05	5.258699E-06	2.3157E-06	1.562946E-05	8.822791E-06
-1.263104E-05	-2.114806E-05	-5.22054E-06	-2.29695E-05	-1.490728E-05	-6.766219E-06	-1.634535E-06	-1.261971E-05	4.131317E-06	4.460015E-06	-3.356201E-05	-1.689994E-05	5.258699E-06	2.3157E-06	1.562946E-05	8.822791E-06
-1.40319E-05	-1.895922E-05	-3.640511E-06	-2.007956E-05	-1.502375E-05	-5.524662E-06	2.927364E-07	-1.256886E-05	2.696076E-06	4.893895E-06	-3.439841E-05	-1.772987E-05	4.646014E-06	6.217585E-07	1.404034E-05	7.997376E-06
-1.40319E-05	-1.895922E-05	-3.640511E-06	-2.007956E-05	-1.502375E-05	-5.524662E-06	2.927364E-07	-1.256886E-05	2.696076E-06	4.893895E-06	-3.439841E-05	-1.772987E-05	4.646014E-06	6.217585E-07	1.404034E-05	7.997376E-06
-1.516098E-05	-1.452599E-05	-2.069607E-06	-1.653305E-05	-1.50257E-05	-4.26592E-06	-7.453652E-08	-1.219428E-05	2.09049E-06	3.345477E-06	-3.507821E-05	-1.877376E-05	4.019612E-06	1.531025E-06	1.422819E-05	9.096172E-06
-1.516098E-05	-1.452599E-05	-2.069607E-06	-1.653305E-05	-1.50257E-05	-4.26592E-06	-7.453652E-08	-1.219428E-05	2.09049E-06	3.345477E-06	-3.507821E-05	-1.877376E-05	4.019612E-06	1.531025E-06	1.422819E-05	9.096172E-06
-1.439312E-05	-1.12307E-05	-1.607072E-06	-1.41191E-05	-1.529836E-05	-5.329314E-06	-1.883145E-06	-1.226803E-05	2.42577E-06	1.32367E-06	-3.414962E-05	-1.957239E-05	2.888725E-06	3.552667E-06	1.495663E-05	1.018517E-05
-1.439312E-05	-1.12307E-05	-1.607072E-06	-1.41191E-05	-1.529836E-05	-5.329314E-06	-1.883145E-06	-1.226803E-05	2.42577E-06	1.32367E-06	-3.414962E-05	-1.957239E-05	2.888725E-06	3.552667E-06	1.495663E-05	1.018517E-05
-1.276398E-05	-9.279694E-06	-1.811891E-06	-1.219221E-05	-1.606147E-05	-7.712088E-06	-2.99413E-06	-1.249208E-05	1.340699E-06	1.324833E-07	-3.21368E-05	-2.085055E-05	2.896249E-06	4.98193E-06	1.613618E-05	9.495646E-06
-1.276398E-05	-9.279694E-06	-1.811891E-06	-1.219221E-05	-1.606147E-05	-7.712088E-06	-2.99413E-06	-1.249208E-05	1.340699E-06	1.324833E-07	-3.21368E-05	-2.085055E-05	2.896249E-06	4.98193E-06	1.613618E-05	9.495646E-06
-1.222289E-05	-7.87805E-06	-2.228219E-06	-1.15731E-05	-1.596536E-05	-9.56341E-06	-3.078879E-06	-1.291709E-05	1.675879E-06	4.332561E-07	-3.254164E-05	-2.138407E-05	5.202862E-06	5.168429E-06	1.571576E-05	9.862895E-06
-1.222289E-05	-7.87805E-06	-2.228219E-06	-1.15731E-05	-1.596536E-05	-9.56341E-06	-3.078879E-06	-1.291709E-05	1.675879E-06	4.332561E-07	-3.254164E-05	-2.138407E-05	5.202862E-06	5.168429E-06	1.571576E-05	9.862895E-06
-1.289875E-05	-7.10472E-06	-3.085429E-06	-1.28118E-05	-1.489905E-05	-1.016698E-05	-2.527088E-06	-1.366514E-05	3.238903E-06	1.534135E-06	-3.338939E-05	-2.044768E-05	7.299048E-06	4.72825E-06	1.459226E-05	1.131342E-05
-1.289875E-05	-7.10472E-06	-3.085429E-06	-1.28118E-05	-1.489905E-05	-1.016698E-05	-2.527088E-06	-1.366514E-05	3.238903E-06	1.534135E-06	-3.338939E-05	-2.044768E-05	7.299048E-06	4.72825E-06	1.459226E-05	1.131342E-05
-1.3476E-05	-6.348254E-06	-4.515257E-06	-1.46291E-05	-1.433024E-05	-1.024628E-05	-1.748774E-06	-1.436011E-05	3.927294E-06	2.578062E-06	-3.351122E-05	-2.054521E-05	7.321177E-06	4.589173E-06	1.429043E-05	1.193164E-05
-1.3476E-05	-6.348254E-06	-4.515257E-06	-1.46291E-05	-1.433024E-05	-1.024628E-05	-1.748774E-06	-1.436011E-05	3.927294E-06	2.578062E-06	-3.351122E-05	-2.054521E-05	7.321177E-06	4.589173E-06	1.429043E-05	1.193164E-05
-1.323336E-05	-4.486849E-06	-6.047868E-06	-1.588497E-05	-1.468771E-05	-1.115723E-05	-1.540724E-06	-1.489607E-05	1.787417E-06	3.807668E-06	-3.279532E-05	-2.173651E-05	6.843358E-06	5.840167E-06	1.496799E-05	1.118679E-05
-1.323336E-05	-4.486849E-06	-6.047868E-06	-1.588497E-05	-1.468771E-05	-1.115723E-05	-1.540724E-06	-1.489607E-05	1.787417E-06	3.807668E-06	-3.279532E-05	-2.173651E-05	6.843358E-06	5.840167E-06	1.496799E-05	1.118679E-05
-1.24583E-05	-2.050212E-06	-6.966392E-06	-1.548774E-05	-1.546448E-05	-1.2271E-05	-2.010197E-06	-1.571375E-05	-5.049748E-07	4.154431E-06	-3.287353E-05	-2.18227E-05	7.763496E-06	5.848574E-06	1.583288E-05	9.523365E-06
-1.24583E-05	-2.050212E-06	-6.966392E-06	-1.548774E-05	-1.546448E-05	-1.2271E-05	-2.010197E-06	-1.571375E-05	-5.049748E-07	4.154431E-06	-3.287353E-05	-2.18227E-05	7.763496E-06	5.848574E-06	1.583288E-05	9.523365E-06
-1.180955E-05	-7.710576E-07	-6.889709E-06	-1.302382E-05	-1.602941E-05	-1.182977E-05	-2.279807E-06	-1.688737E-05	-1.22131E-06	4.312453E-06	-3.238422E-05	-2.057352E-05	8.399465E-06	4.400921E-06	1.526676E-05	8.562201E-06
-1.180955E-05	-7.710576E-07	-6.889709E-06	-1.302382E-05	-1.602941E-05	-1.182977E-05	-2.279807E-06	-1.688737E-05	-1.22131E-06	4.312453E-06	-3.238422E-05	-2.057352E-05	8.399465E-06	4.400921E-06	1.526676E-05	8.562201E-06
-1.168216E-05	-1.092791E-06	-6.216945E-06	-1.04202E-05	-1.575336E-05	-1.060147E-05	-1.747751E-06	-1.75302E-05	-6.723591E-07	4.40766E-06	-3.168324E-05	-1.915516E-05	8.074669E-06	4.118132E-06	1.448394E-05	9.000435E-06
-1.168216E-05	-1.092791E-06	-6.216945E-06	-1.04202E-05	-1.575336E-05	-1.060147E-05	-1.747751E-06	-1.75302E-05	-6.723591E-07	4.40766E-06	-3.168324E-05	-1.915516E-05	8.074669E-06	4.118132E-06	1.448394E-05	9.000435E-06
-1.230001E-05	-1.55711E-06	-5.807935E-06	-9.321437E-06	-1.486979E-05	-1.010108E-05	-1.178764E-06	-1.691707E-05	-7.181387E-07	4.695606E-06	-3.166516E-05	-1.800864E-05	8.099947E-06	6.242674E-06	1.465785E-05	1.040102E-05
-1.230001E-05	-1.55711E-06	-5.807935E-06	-9.321437E-06	-1.486979E-05	-1.010108E-05	-1.178764E-06	-1.691707E-05	-7.181387E-07	4.695606E-06	-3.166516E-05	-1.800864E-05	8.099947E-06	6.242674E-06	1.465785E-05	1.040102E-05
-1.36065E-05	-6.559874E-07	-5.802181E-06	-8.757734E-06	-1.422856E-05	-9.788819E-06	-1.590087E-06	-1.551182E-05	-1.194015E-06	5.159895E-06	-3.222828E-05	-1.790137E-05	8.18896E-06	8.561815E-06	1.591672E-05	1.115899E-05
-1.36065E-05	-6.559874E-07	-5.802181E-06	-8.757734E-06	-1.422856E-05	-9.788819E-06	-1.590087E-06	-1.551182E-05	-1.194015E-06	5.159895E-06	-3.222828E-05	-1.790137E-05	8.18896E-06	8.561815E-06	1.591672E-05	1.115899E-05
-1.453231E-05	9.699457E-07	-5.242736E-06	-7.534538E-06	-1.381494E-05	-8.804017E-06	-2.021924E-06	-1.442912E-05	-1.492312E-06	5.766004E-06	-3.263805E-05	-1.849097E-05	7.328446E-06	8.659543E-06	1.719882E-05	1.040533E-05
-1.453231E-05	9.699457E-07	-5.242736E-06	-7.534538E-06	-1.381494E-05	-8.804017E-06	-2.021924E-06	-1.442912E-05	-1.492312E-06	5.766004E-06	-3.263805E-05	-1.849097E-05	7.328446E-06	8.659543E-06	1.719882E-05	1.040533E-05
-1.401438E-05	1.579934E-06	-4.162466E-06	-6.66869E-06	-1.336441E-05	-7.597394E-06	-9.369723E-07	-1.420193E-05	-1.535175E-06	5.443813E-06	-3.280659E-05	-1.897809E-05	6.354961E-06	6.752549E-06	1.785435E-05	9.867303E-06
-1.401438E-05	1.579934E-06	-4.162466E-06	-6.66869E-06	-1.336441E-05	-7.597394E-06	-9.369723E-07	-1.420193E-05	-1.535175E-06	5.443813E-06	-3.280659E-05	-1.897809E-05	6.354961E-06	6.752549E-06	1.785435E-05	9.867303E-06
-1.242429E-05	8.490634E-07	-4.15968E-06	-8.186297E-06	-1.333802E-05	-7.277451E-06	1.314491E-06	-1.425892E-05	-1.337875E-06	4.214153E-06	-3.346918E-05	-1.914731E-05	6.785727E-06	5.042072E-06	1.765833E-05	1.012872E-05
-1.242429E-05	8.490634E-07	-4.15968E-06	-8.186297E-06	-1.333802E-05	-7.277451E-06	1.314491E-06	-1.425892E-05	-1.337875E-06	4.214153E-06	-3.346918E-05	-1.914731E-05	6.785727E-06	5.042072E-06	1.765833E-05	1.012872E-05
-1.091963E-05	-8.39705E-08	-5.00617E-06	-1.125496E-05	-1.364889E-05	-8.010273E-06	3.494145E-06	-1.401217E-05	-3.869729E-07	3.124173E-06	-3.405336E-05	-1.978194E-05	7.79234E-06	5.288094E-06	1.650938E-05	1.093025E-05
-1.091963E-05	-8.39705E-08	-5.00617E-06	-1.125496E-05	-1.364889E-05	-8.010273E-06	3.494145E-06	-1.401217E-05	-3.869729E-07	3.124173E-06	-3.405336E-05	-1.978194E-05	7.79234E-06	5.288094E-06	1.650938E-05	1.093025E-05
-1.03015E-05	-8.080217E-08	-4.876401E-06	-1.266343E-05	-1.370128E-05	-8.870305E-06	4.62342E-06	-1.353205E-05	1.672669E-06	2.782248E-06	-3.318964E-05	-2.028743E-05	8.881325E-06	5.828068E-06	1.486583E-05	1.272618E-05
-1.03015E-05	-8.080217E-08	-4.876401E-06	-1.266343E-05	-1.370128E-05	-8.870305E-06	4.62342E-06	-1.353205E-05	1.672669E-06	2.782248E-06	-3.318964E-05	-2.028743E-05	8.881325E-06	5.828068E-06	1.486583E-05	1.272618E-05
-1.051691E-05	6.416368E-07	-3.862684E-06	-1.136776E-05	-1.374968E-05	-9.206977E-06	4.19597E-06	-1.289433E-05	1.791574E-06	2.765082E-06	-3.132413E-05	-2.026601E-05	1.021878E-05	5.73376E-06	1.431482E-05	1.440077E-05
-1.051691E-05	6.416368E-07	-3.862684E-06	-1.136776E-05	-1.374968E-05	-9.206977E-06	4.19597E-06	-1.289433E-05	1.791574E-06	2.765082E-06	-3.132413E-05	-2.026601E-05	1.021878E-05	5.73376E-06	1.431482E-05	1.440077E-05
-1.075216E-05	4.785999E-07	-3.016614E-06	-8.642035E-06	-1.413655E-05	-8.806081E-06	3.034886E-06	-1.197656E-05	-3.279241E-07	3.597095E-06	-2.974093E-05	-1.998493E-05	1.045886E-05	6.668258E-06	1.474896E-05	1.425599E-05
-1.075216E-05	4.785999E-07	-3.016614E-06	-8.642035E-06	-1.413655E-05	-8.806081E-06	3.034886E-06	-1.197656E-05	-3.279241E-07	3.597095E-06	-2.974093E-05	-1.998493E-05	1.045886E-05	6.668258E-06	1.474896E-05	1.425599E-05
-1.04273E-05	-1.505346E-06	-2.478185E-06	-6.007098E-06	-1.4643E-05	-7.874984E-06	2.560327E-06	-1.100292E-05	-2.003991E-06	3.949699E-06	-2.867359E-05	-1.992266E-05	9.540416E-06	7.9674E-06	1.552419E-05	1.322919E-05
-1.04273E-05	-1.505346E-06	-2.478185E-06	-6.007098E-06	-1.4643E-05	-7.874984E-06	2.560327E-06	-1.100292E-05	-2.003991E-06	3.949699E-06	-2.867359E-05	-1.992266E-05	9.540416E-06	7.9674E-06	1.552419E-05	1.322919E-05
-9.96963E-06	-3.850397E-06	-2.175732E-06	-4.836695E-06	-1.527334E-05	-7.432981E-06	2.879143E-06	-1.07201E-05	-1.127631E-06	3.912095E-06	-2.925713E-05	-1.961704E-05	8.869525E-06	8.830876E-06	1.565236E-05	1.33814E-05
-9.96963E-06	-3.850397E-06	-2.175732E-06	-4.836695E-06	-1.527334E-05	-7.432981E-06	2.879143E-06	-1.07201E-05	-1.127631E-06	3.912095E-06	-2.925713E-05	-1.961704E-05	8.869525E-06	8.830876E-06	1.565236E-05	1.33814E-05
-9.882274E-06	-4.648485E-06	-1.897031E-06	-5.518536E-06	-1.592319E-05	-7.85904E-06	3.291025E-06	-1.112538E-05	8.955328E-07	5.049278E-06	-3.092295E-05	-1.910408E-05	8.304064E-06	8.782446E-06	1.520658E-05	1.413075E-05
-9.882274E-06	-4.648485E-06	-1.897031E-06	-5.518536E-06	-1.592319E-05	-7.85904E-06	3.291025E-06	-1.112538E-05	8.955328E-07	5.049278E-06	-3.092295E-05	-1.910408E-05	8.304064E-06	8.782446E-06	1.520658E-05	1.413075E-05
-9.925094E-06	-4.048642E-06	-1.289718E-06	-6.982918E-06	-1.608908E-05	-8.163481E-06	3.577061E-06	-1.118042E-05	3.291241E-06	4.39941E-06	-3.303334E-05	-2.025344E-05	6.596874E-06	6.497041E-06	1.470819E-05	1.438134E-05
-9.925094E-06	-4.048642E-06	-1.289718E-06	-6.982918E-06	-1.608908E-05	-8.163481E-06	3.577061E-06	-1.118042E-05	3.291241E-06	4.39941E-06	-3.303334E-05	-2.025344E-05	6.596874E-06	6.497041E-06	1.470819E-05	1.438134E-05
-9.76411E-06	-2.431397E-06	-1.457302E-06	-8.486379E-06	-1.593663E-05	-7.339037E-06	3.652313E-06	-1.100182E-05	4.005958E-06	2.014032E-06	-3.395729E-05	-2.167239E-05	6.336099E-06	5.106524E-06	1.336521E-05	1.331187E-05
-9.76411E-06	-2.431397E-06	-1.457302E-06	-8.486379E-06	-1.593663E-05	-7.339037E-06	3.652313E-06	-1.100182E-05	4.005958E-06	2.014032E-06	-3.395729E-05	-2.167239E-05	6.336099E-06	5.106524E-06	1.336521E-05	1.331187E-05
-9.191797E-06	1.092361E-06	-3.907473E-06	-1.040634E-05	-1.609519E-05	-5.160876E-06	3.486459E-06	-1.180049E-05	2.360357E-06	8.733612E-07	-3.555242E-05	-2.191436E-05	7.690296E-06	5.835592E-06	1.206418E-05	1.293591E-05
-9.191797E-06	1.092361E-06	-3.907473E-06	-1.040634E-05	-1.609519E-05	-5.160876E-06	3.486459E-06	-1.180049E-05	2.360357E-06	8.733612E-07	-3.555242E-05	-2.191436E-05	7.690296E-06	5.835592E-06	1.206418E-05	1.293591E-05
-8.304223E-06	5.323585E-06	-6.448963E-06	-1.189123E-05	-1.652017E-05	-3.430509E-06	3.490236E-06	-1.344203E-05	1.155909E-06	1.91086E-06	-3.546338E-05	-2.28337E-05	8.637796E-06	6.684299E-06	1.184227E-05	1.372806E-05
-8.304223E-06	5.323585E-06	-6.448963E-06	-1.189123E-05	-1.652017E-05	-3.430509E-06	3.490236E-06	-1.344203E-05	1.155909E-06	1.91086E-06	-3.546338E-05	-2.28337E-05	8.637796E-06	6.684299E-06	1.184227E-05	1.372806E-05
-7.907518E-06	7.445193E-06	-5.786059E-06	-1.17143E-05	-1.696599E-05	-4.132553E-06	3.86067E-06	-1.471673E-05	5.893533E-07	4.099562E-06	-3.356979E-05	-2.357169E-05	9.024859E-06	7.226967E-06	1.27456E-05	1.351568E-05
-7.907518E-06	7.445193E-06	-5.786059E-06	-1.17143E-05	-1.696599E-05	-4.132553E-06	3.86067E-06	-1.471673E-05	5.893533E-07	4.099562E-06	-3.356979E-05	-2.357169E-05	9.024859E-06	7.226967E-06	1.27456E-05	1.351568E-05
-8.639831E-06	7.340539E-06	-3.350425E-06	-1.091396E-05	-1.731854E-05	-5.735234E-06	4.007174E-06	-1.490633E-05	1.215248E-06	5.374489E-06	-3.158275E-05	-2.244798E-05	8.058161E-06	6.687724E-06	1.357787E-05	1.189954E-05
-8.639831E-06	7.340539E-06	-3.350425E-06	-1.091396E-05	-1.731854E-05	-5.735234E-06	4.007174E-06	-1.490633E-05	1.215248E-06	5.374489E-06	-3.158275E-05	-2.244798E-05	8.058161E-06	6.687724E-06	1.357787E-05	1.189954E-05
-1.022387E-05	5.230666E-06	-2.337272E-06	-1.015285E-05	-1.702481E-05	-6.197291E-06	3.346217E-06	-1.383171E-05	2.669836E-06	5.530394E-06	-3.092138E-05	-2.16142E-05	6.951544E-06	6.520166E-06	1.250987E-05	1.131851E-05
-1.022387E-05	5.230666E-06	-2.337272E-06	-1.015285E-05	-1.702481E-05	-6.197291E-06	3.346217E-06	-1.383171E-05	2.669836E-06	5.530394E-06	-3.092138E-05	-2.16142E-05	6.951544E-06	6.520166E-06	1.250987E-05	1.131851E-05
